# wavelength (nm) photoabsorption  photodissociation  photoionisation (cm^2)
5.0000E+00,     5.743874E-19,     0.000000E+00,     5.743874E-19
5.1000E+00,     6.088696E-19,     0.000000E+00,     6.088696E-19
5.2000E+00,     6.433519E-19,     0.000000E+00,     6.433519E-19
5.3000E+00,     6.759935E-19,     0.000000E+00,     6.759935E-19
5.4000E+00,     7.028303E-19,     0.000000E+00,     7.028303E-19
5.5000E+00,     7.296672E-19,     0.000000E+00,     7.296672E-19
5.6000E+00,     7.565041E-19,     0.000000E+00,     7.565041E-19
5.7000E+00,     7.833410E-19,     0.000000E+00,     7.833410E-19
5.8000E+00,     8.068036E-19,     0.000000E+00,     8.068036E-19
5.9000E+00,     8.235054E-19,     0.000000E+00,     8.235054E-19
6.0000E+00,     8.402072E-19,     0.000000E+00,     8.402072E-19
6.1000E+00,     8.569090E-19,     0.000000E+00,     8.569090E-19
6.2000E+00,     8.736108E-19,     0.000000E+00,     8.736108E-19
6.3000E+00,     8.903126E-19,     0.000000E+00,     8.903126E-19
6.4000E+00,     9.151934E-19,     0.000000E+00,     9.151934E-19
6.5000E+00,     9.514452E-19,     0.000000E+00,     9.514452E-19
6.6000E+00,     9.876970E-19,     0.000000E+00,     9.876970E-19
6.7000E+00,     1.023949E-18,     0.000000E+00,     1.023949E-18
6.8000E+00,     1.060201E-18,     0.000000E+00,     1.060201E-18
6.9000E+00,     1.096453E-18,     0.000000E+00,     1.096453E-18
7.0000E+00,     1.132704E-18,     0.000000E+00,     1.132704E-18
7.1000E+00,     1.168009E-18,     0.000000E+00,     1.168009E-18
7.2000E+00,     1.198025E-18,     0.000000E+00,     1.198025E-18
7.3000E+00,     1.228042E-18,     0.000000E+00,     1.228042E-18
7.4000E+00,     1.258058E-18,     0.000000E+00,     1.258058E-18
7.5000E+00,     1.288074E-18,     0.000000E+00,     1.288074E-18
7.6000E+00,     1.318091E-18,     0.000000E+00,     1.318091E-18
7.7000E+00,     1.348107E-18,     0.000000E+00,     1.348107E-18
7.8000E+00,     1.378123E-18,     0.000000E+00,     1.378123E-18
7.9000E+00,     1.408140E-18,     0.000000E+00,     1.408140E-18
8.0000E+00,     1.438360E-18,     0.000000E+00,     1.438360E-18
8.1000E+00,     1.488375E-18,     0.000000E+00,     1.488375E-18
8.2000E+00,     1.538391E-18,     0.000000E+00,     1.538391E-18
8.3000E+00,     1.588406E-18,     0.000000E+00,     1.588406E-18
8.4000E+00,     1.638422E-18,     0.000000E+00,     1.638422E-18
8.5000E+00,     1.688437E-18,     0.000000E+00,     1.688437E-18
8.6000E+00,     1.738453E-18,     0.000000E+00,     1.738453E-18
8.7000E+00,     1.788468E-18,     0.000000E+00,     1.788468E-18
8.8000E+00,     1.838483E-18,     0.000000E+00,     1.838483E-18
8.9000E+00,     1.888499E-18,     0.000000E+00,     1.888499E-18
9.0000E+00,     1.938514E-18,     0.000000E+00,     1.938514E-18
9.1000E+00,     1.988530E-18,     0.000000E+00,     1.988530E-18
9.2000E+00,     2.038459E-18,     0.000000E+00,     2.038459E-18
9.3000E+00,     2.087937E-18,     0.000000E+00,     2.087937E-18
9.4000E+00,     2.137415E-18,     0.000000E+00,     2.137415E-18
9.5000E+00,     2.186893E-18,     0.000000E+00,     2.186893E-18
9.6000E+00,     2.236371E-18,     0.000000E+00,     2.236371E-18
9.7000E+00,     2.285848E-18,     0.000000E+00,     2.285848E-18
9.8000E+00,     2.335326E-18,     0.000000E+00,     2.335326E-18
9.9000E+00,     2.384804E-18,     0.000000E+00,     2.384804E-18
1.0000E+01,     2.434282E-18,     0.000000E+00,     2.434282E-18
1.0100E+01,     2.483760E-18,     0.000000E+00,     2.483760E-18
1.0200E+01,     2.533238E-18,     0.000000E+00,     2.533238E-18
1.0300E+01,     2.582716E-18,     0.000000E+00,     2.582716E-18
1.0400E+01,     2.632193E-18,     0.000000E+00,     2.632193E-18
1.0500E+01,     2.681671E-18,     0.000000E+00,     2.681671E-18
1.0600E+01,     2.731149E-18,     0.000000E+00,     2.731149E-18
1.0700E+01,     2.780627E-18,     0.000000E+00,     2.780627E-18
1.0800E+01,     2.831891E-18,     0.000000E+00,     2.831891E-18
1.0900E+01,     2.890887E-18,     0.000000E+00,     2.890887E-18
1.1000E+01,     2.949884E-18,     0.000000E+00,     2.949884E-18
1.1100E+01,     3.008880E-18,     0.000000E+00,     3.008880E-18
1.1200E+01,     3.067876E-18,     0.000000E+00,     3.067876E-18
1.1300E+01,     3.126873E-18,     0.000000E+00,     3.126873E-18
1.1400E+01,     3.185869E-18,     0.000000E+00,     3.185869E-18
1.1500E+01,     3.244865E-18,     0.000000E+00,     3.244865E-18
1.1600E+01,     3.303862E-18,     0.000000E+00,     3.303862E-18
1.1700E+01,     3.362858E-18,     0.000000E+00,     3.362858E-18
1.1800E+01,     3.421854E-18,     0.000000E+00,     3.421854E-18
1.1900E+01,     3.480851E-18,     0.000000E+00,     3.480851E-18
1.2000E+01,     3.539847E-18,     0.000000E+00,     3.539847E-18
1.2100E+01,     3.598844E-18,     0.000000E+00,     3.598844E-18
1.2200E+01,     3.657840E-18,     0.000000E+00,     3.657840E-18
1.2300E+01,     3.716836E-18,     0.000000E+00,     3.716836E-18
1.2400E+01,     3.775833E-18,     0.000000E+00,     3.775833E-18
1.2500E+01,     3.834829E-18,     0.000000E+00,     3.834829E-18
1.2600E+01,     3.893825E-18,     0.000000E+00,     3.893825E-18
1.2700E+01,     3.952822E-18,     0.000000E+00,     3.952822E-18
1.2800E+01,     4.011818E-18,     0.000000E+00,     4.011818E-18
1.2900E+01,     4.070814E-18,     0.000000E+00,     4.070814E-18
1.3000E+01,     4.129811E-18,     0.000000E+00,     4.129811E-18
1.3100E+01,     4.196529E-18,     0.000000E+00,     4.196529E-18
1.3200E+01,     4.271273E-18,     0.000000E+00,     4.271273E-18
1.3300E+01,     4.346018E-18,     0.000000E+00,     4.346018E-18
1.3400E+01,     4.420762E-18,     0.000000E+00,     4.420762E-18
1.3500E+01,     4.495507E-18,     0.000000E+00,     4.495507E-18
1.3600E+01,     4.570251E-18,     0.000000E+00,     4.570251E-18
1.3700E+01,     4.644995E-18,     0.000000E+00,     4.644995E-18
1.3800E+01,     4.719740E-18,     0.000000E+00,     4.719740E-18
1.3900E+01,     4.794484E-18,     0.000000E+00,     4.794484E-18
1.4000E+01,     4.869229E-18,     0.000000E+00,     4.869229E-18
1.4100E+01,     4.943973E-18,     0.000000E+00,     4.943973E-18
1.4200E+01,     5.018718E-18,     0.000000E+00,     5.018718E-18
1.4300E+01,     5.093462E-18,     0.000000E+00,     5.093462E-18
1.4400E+01,     5.168207E-18,     0.000000E+00,     5.168207E-18
1.4500E+01,     5.242951E-18,     0.000000E+00,     5.242951E-18
1.4600E+01,     5.317696E-18,     0.000000E+00,     5.317696E-18
1.4700E+01,     5.392440E-18,     0.000000E+00,     5.392440E-18
1.4800E+01,     5.467184E-18,     0.000000E+00,     5.467184E-18
1.4900E+01,     5.541929E-18,     0.000000E+00,     5.541929E-18
1.5000E+01,     5.616673E-18,     0.000000E+00,     5.616673E-18
1.5100E+01,     5.691418E-18,     0.000000E+00,     5.691418E-18
1.5200E+01,     5.766162E-18,     0.000000E+00,     5.766162E-18
1.5300E+01,     5.840907E-18,     0.000000E+00,     5.840907E-18
1.5400E+01,     5.915651E-18,     0.000000E+00,     5.915651E-18
1.5500E+01,     5.990396E-18,     0.000000E+00,     5.990396E-18
1.5600E+01,     6.065140E-18,     0.000000E+00,     6.065140E-18
1.5700E+01,     6.139885E-18,     0.000000E+00,     6.139885E-18
1.5800E+01,     6.214629E-18,     0.000000E+00,     6.214629E-18
1.5900E+01,     6.289373E-18,     0.000000E+00,     6.289373E-18
1.6000E+01,     6.364118E-18,     0.000000E+00,     6.364118E-18
1.6100E+01,     6.438862E-18,     0.000000E+00,     6.438862E-18
1.6200E+01,     6.513607E-18,     0.000000E+00,     6.513607E-18
1.6300E+01,     6.588351E-18,     0.000000E+00,     6.588351E-18
1.6400E+01,     6.663096E-18,     0.000000E+00,     6.663096E-18
1.6500E+01,     6.737840E-18,     0.000000E+00,     6.737840E-18
1.6600E+01,     6.822000E-18,     0.000000E+00,     6.822000E-18
1.6700E+01,     6.910436E-18,     0.000000E+00,     6.910436E-18
1.6800E+01,     6.991292E-18,     0.000000E+00,     6.991292E-18
1.6900E+01,     7.063026E-18,     0.000000E+00,     7.063026E-18
1.7000E+01,     7.134452E-18,     0.000000E+00,     7.134452E-18
1.7100E+01,     7.204247E-18,     0.000000E+00,     7.204247E-18
1.7200E+01,     7.274042E-18,     0.000000E+00,     7.274042E-18
1.7300E+01,     7.345928E-18,     0.000000E+00,     7.345928E-18
1.7400E+01,     7.418338E-18,     0.000000E+00,     7.418338E-18
1.7500E+01,     7.501524E-18,     0.000000E+00,     7.501524E-18
1.7600E+01,     7.602716E-18,     0.000000E+00,     7.602716E-18
1.7700E+01,     7.703908E-18,     0.000000E+00,     7.703908E-18
1.7800E+01,     7.787552E-18,     0.000000E+00,     7.787552E-18
1.7900E+01,     7.868796E-18,     0.000000E+00,     7.868796E-18
1.8000E+01,     7.940219E-18,     0.000000E+00,     7.940219E-18
1.8100E+01,     7.990063E-18,     0.000000E+00,     7.990063E-18
1.8200E+01,     8.039906E-18,     0.000000E+00,     8.039906E-18
1.8300E+01,     8.121224E-18,     0.000000E+00,     8.121224E-18
1.8400E+01,     8.218022E-18,     0.000000E+00,     8.218022E-18
1.8500E+01,     8.314820E-18,     0.000000E+00,     8.314820E-18
1.8600E+01,     8.360625E-18,     0.000000E+00,     8.360625E-18
1.8700E+01,     8.403688E-18,     0.000000E+00,     8.403688E-18
1.8800E+01,     8.452077E-18,     0.000000E+00,     8.452077E-18
1.8900E+01,     8.531829E-18,     0.000000E+00,     8.531829E-18
1.9000E+01,     8.611581E-18,     0.000000E+00,     8.611581E-18
1.9100E+01,     8.690718E-18,     0.000000E+00,     8.690718E-18
1.9200E+01,     8.768057E-18,     0.000000E+00,     8.768057E-18
1.9300E+01,     8.845396E-18,     0.000000E+00,     8.845396E-18
1.9400E+01,     8.920119E-18,     0.000000E+00,     8.920119E-18
1.9500E+01,     8.987937E-18,     0.000000E+00,     8.987937E-18
1.9600E+01,     9.055755E-18,     0.000000E+00,     9.055755E-18
1.9700E+01,     9.127983E-18,     0.000000E+00,     9.127983E-18
1.9800E+01,     9.217886E-18,     0.000000E+00,     9.217886E-18
1.9900E+01,     9.307789E-18,     0.000000E+00,     9.307789E-18
2.0000E+01,     9.397192E-18,     0.000000E+00,     9.397192E-18
2.0100E+01,     9.467504E-18,     0.000000E+00,     9.467504E-18
2.0200E+01,     9.537815E-18,     0.000000E+00,     9.537815E-18
2.0300E+01,     9.608127E-18,     0.000000E+00,     9.608127E-18
2.0400E+01,     9.669477E-18,     0.000000E+00,     9.669477E-18
2.0500E+01,     9.727797E-18,     0.000000E+00,     9.727797E-18
2.0600E+01,     9.786116E-18,     0.000000E+00,     9.786116E-18
2.0700E+01,     9.849384E-18,     0.000000E+00,     9.849384E-18
2.0800E+01,     9.921461E-18,     0.000000E+00,     9.921461E-18
2.0900E+01,     9.993537E-18,     0.000000E+00,     9.993537E-18
2.1000E+01,     1.006561E-17,     0.000000E+00,     1.006561E-17
2.1100E+01,     1.014083E-17,     0.000000E+00,     1.014083E-17
2.1200E+01,     1.021656E-17,     0.000000E+00,     1.021656E-17
2.1300E+01,     1.029230E-17,     0.000000E+00,     1.029230E-17
2.1400E+01,     1.036606E-17,     0.000000E+00,     1.036606E-17
2.1500E+01,     1.043339E-17,     0.000000E+00,     1.043339E-17
2.1600E+01,     1.050072E-17,     0.000000E+00,     1.050072E-17
2.1700E+01,     1.056805E-17,     0.000000E+00,     1.056805E-17
2.1800E+01,     1.064518E-17,     0.000000E+00,     1.064518E-17
2.1900E+01,     1.073276E-17,     0.000000E+00,     1.073276E-17
2.2000E+01,     1.082035E-17,     0.000000E+00,     1.082035E-17
2.2100E+01,     1.090794E-17,     0.000000E+00,     1.090794E-17
2.2200E+01,     1.100840E-17,     0.000000E+00,     1.100840E-17
2.2300E+01,     1.111745E-17,     0.000000E+00,     1.111745E-17
2.2400E+01,     1.122651E-17,     0.000000E+00,     1.122651E-17
2.2500E+01,     1.133556E-17,     0.000000E+00,     1.133556E-17
2.2600E+01,     1.142729E-17,     0.000000E+00,     1.142729E-17
2.2700E+01,     1.150618E-17,     0.000000E+00,     1.150618E-17
2.2800E+01,     1.158506E-17,     0.000000E+00,     1.158506E-17
2.2900E+01,     1.166394E-17,     0.000000E+00,     1.166394E-17
2.3000E+01,     1.174066E-17,     0.000000E+00,     1.174066E-17
2.3100E+01,     1.181414E-17,     0.000000E+00,     1.181414E-17
2.3200E+01,     1.188761E-17,     0.000000E+00,     1.188761E-17
2.3300E+01,     1.196109E-17,     0.000000E+00,     1.196109E-17
2.3400E+01,     1.203537E-17,     0.000000E+00,     1.203537E-17
2.3500E+01,     1.212077E-17,     0.000000E+00,     1.212077E-17
2.3600E+01,     1.220617E-17,     0.000000E+00,     1.220617E-17
2.3700E+01,     1.229158E-17,     0.000000E+00,     1.229158E-17
2.3800E+01,     1.237698E-17,     0.000000E+00,     1.237698E-17
2.3900E+01,     1.246455E-17,     0.000000E+00,     1.246455E-17
2.4000E+01,     1.255377E-17,     0.000000E+00,     1.255377E-17
2.4100E+01,     1.264299E-17,     0.000000E+00,     1.264299E-17
2.4200E+01,     1.273220E-17,     0.000000E+00,     1.273220E-17
2.4300E+01,     1.282142E-17,     0.000000E+00,     1.282142E-17
2.4400E+01,     1.291362E-17,     0.000000E+00,     1.291362E-17
2.4500E+01,     1.300617E-17,     0.000000E+00,     1.300617E-17
2.4600E+01,     1.309872E-17,     0.000000E+00,     1.309872E-17
2.4700E+01,     1.319127E-17,     0.000000E+00,     1.319127E-17
2.4800E+01,     1.328289E-17,     0.000000E+00,     1.328289E-17
2.4900E+01,     1.334579E-17,     0.000000E+00,     1.334579E-17
2.5000E+01,     1.340868E-17,     0.000000E+00,     1.340868E-17
2.5100E+01,     1.347158E-17,     0.000000E+00,     1.347158E-17
2.5200E+01,     1.353448E-17,     0.000000E+00,     1.353448E-17
2.5300E+01,     1.359738E-17,     0.000000E+00,     1.359738E-17
2.5400E+01,     1.370635E-17,     0.000000E+00,     1.370635E-17
2.5500E+01,     1.381670E-17,     0.000000E+00,     1.381670E-17
2.5600E+01,     1.392705E-17,     0.000000E+00,     1.392705E-17
2.5700E+01,     1.403740E-17,     0.000000E+00,     1.403740E-17
2.5800E+01,     1.414775E-17,     0.000000E+00,     1.414775E-17
2.5900E+01,     1.424797E-17,     0.000000E+00,     1.424797E-17
2.6000E+01,     1.434385E-17,     0.000000E+00,     1.434385E-17
2.6100E+01,     1.443972E-17,     0.000000E+00,     1.443972E-17
2.6200E+01,     1.453559E-17,     0.000000E+00,     1.453559E-17
2.6300E+01,     1.463147E-17,     0.000000E+00,     1.463147E-17
2.6400E+01,     1.472106E-17,     0.000000E+00,     1.472106E-17
2.6500E+01,     1.478612E-17,     0.000000E+00,     1.478612E-17
2.6600E+01,     1.485118E-17,     0.000000E+00,     1.485118E-17
2.6700E+01,     1.491624E-17,     0.000000E+00,     1.491624E-17
2.6800E+01,     1.498130E-17,     0.000000E+00,     1.498130E-17
2.6900E+01,     1.504636E-17,     0.000000E+00,     1.504636E-17
2.7000E+01,     1.511529E-17,     0.000000E+00,     1.511529E-17
2.7100E+01,     1.518860E-17,     0.000000E+00,     1.518860E-17
2.7200E+01,     1.526191E-17,     0.000000E+00,     1.526191E-17
2.7300E+01,     1.533523E-17,     0.000000E+00,     1.533523E-17
2.7400E+01,     1.540854E-17,     0.000000E+00,     1.540854E-17
2.7500E+01,     1.548185E-17,     0.000000E+00,     1.548185E-17
2.7600E+01,     1.556539E-17,     0.000000E+00,     1.556539E-17
2.7700E+01,     1.566004E-17,     0.000000E+00,     1.566004E-17
2.7800E+01,     1.575470E-17,     0.000000E+00,     1.575470E-17
2.7900E+01,     1.584935E-17,     0.000000E+00,     1.584935E-17
2.8000E+01,     1.594400E-17,     0.000000E+00,     1.594400E-17
2.8100E+01,     1.603866E-17,     0.000000E+00,     1.603866E-17
2.8200E+01,     1.612291E-17,     0.000000E+00,     1.612291E-17
2.8300E+01,     1.616980E-17,     0.000000E+00,     1.616980E-17
2.8400E+01,     1.621670E-17,     0.000000E+00,     1.621670E-17
2.8500E+01,     1.626359E-17,     0.000000E+00,     1.626359E-17
2.8600E+01,     1.631049E-17,     0.000000E+00,     1.631049E-17
2.8700E+01,     1.635738E-17,     0.000000E+00,     1.635738E-17
2.8800E+01,     1.640427E-17,     0.000000E+00,     1.640427E-17
2.8900E+01,     1.644975E-17,     0.000000E+00,     1.644975E-17
2.9000E+01,     1.649451E-17,     0.000000E+00,     1.649451E-17
2.9100E+01,     1.653928E-17,     0.000000E+00,     1.653928E-17
2.9200E+01,     1.658404E-17,     0.000000E+00,     1.658404E-17
2.9300E+01,     1.662880E-17,     0.000000E+00,     1.662880E-17
2.9400E+01,     1.667356E-17,     0.000000E+00,     1.667356E-17
2.9500E+01,     1.671833E-17,     0.000000E+00,     1.671833E-17
2.9600E+01,     1.676144E-17,     0.000000E+00,     1.676144E-17
2.9700E+01,     1.680413E-17,     0.000000E+00,     1.680413E-17
2.9800E+01,     1.684682E-17,     0.000000E+00,     1.684682E-17
2.9900E+01,     1.688952E-17,     0.000000E+00,     1.688952E-17
3.0000E+01,     1.693221E-17,     0.000000E+00,     1.693221E-17
3.0100E+01,     1.697491E-17,     0.000000E+00,     1.697491E-17
3.0200E+01,     1.701760E-17,     0.000000E+00,     1.701760E-17
3.0300E+01,     1.705036E-17,     0.000000E+00,     1.705036E-17
3.0400E+01,     1.707649E-17,     0.000000E+00,     1.707649E-17
3.0500E+01,     1.710261E-17,     0.000000E+00,     1.710261E-17
3.0600E+01,     1.712873E-17,     0.000000E+00,     1.712873E-17
3.0700E+01,     1.715486E-17,     0.000000E+00,     1.715486E-17
3.0800E+01,     1.718098E-17,     0.000000E+00,     1.718098E-17
3.0900E+01,     1.720711E-17,     0.000000E+00,     1.720711E-17
3.1000E+01,     1.723269E-17,     0.000000E+00,     1.723269E-17
3.1100E+01,     1.724512E-17,     0.000000E+00,     1.724512E-17
3.1200E+01,     1.725755E-17,     0.000000E+00,     1.725755E-17
3.1300E+01,     1.726998E-17,     0.000000E+00,     1.726998E-17
3.1400E+01,     1.728242E-17,     0.000000E+00,     1.728242E-17
3.1500E+01,     1.729485E-17,     0.000000E+00,     1.729485E-17
3.1600E+01,     1.730728E-17,     0.000000E+00,     1.730728E-17
3.1700E+01,     1.731971E-17,     0.000000E+00,     1.731971E-17
3.1800E+01,     1.733220E-17,     0.000000E+00,     1.733220E-17
3.1900E+01,     1.734533E-17,     0.000000E+00,     1.734533E-17
3.2000E+01,     1.735845E-17,     0.000000E+00,     1.735845E-17
3.2100E+01,     1.737158E-17,     0.000000E+00,     1.737158E-17
3.2200E+01,     1.738470E-17,     0.000000E+00,     1.738470E-17
3.2300E+01,     1.739783E-17,     0.000000E+00,     1.739783E-17
3.2400E+01,     1.741095E-17,     0.000000E+00,     1.741095E-17
3.2500E+01,     1.742408E-17,     0.000000E+00,     1.742408E-17
3.2600E+01,     1.743720E-17,     0.000000E+00,     1.743720E-17
3.2700E+01,     1.745616E-17,     0.000000E+00,     1.745616E-17
3.2800E+01,     1.747732E-17,     0.000000E+00,     1.747732E-17
3.2900E+01,     1.749848E-17,     0.000000E+00,     1.749848E-17
3.3000E+01,     1.751964E-17,     0.000000E+00,     1.751964E-17
3.3100E+01,     1.754080E-17,     0.000000E+00,     1.754080E-17
3.3200E+01,     1.756196E-17,     0.000000E+00,     1.756196E-17
3.3300E+01,     1.758312E-17,     0.000000E+00,     1.758312E-17
3.3400E+01,     1.760428E-17,     0.000000E+00,     1.760428E-17
3.3500E+01,     1.762544E-17,     0.000000E+00,     1.762544E-17
3.3600E+01,     1.764666E-17,     0.000000E+00,     1.764666E-17
3.3700E+01,     1.766788E-17,     0.000000E+00,     1.766788E-17
3.3800E+01,     1.768909E-17,     0.000000E+00,     1.768909E-17
3.3900E+01,     1.771031E-17,     0.000000E+00,     1.771031E-17
3.4000E+01,     1.773153E-17,     0.000000E+00,     1.773153E-17
3.4100E+01,     1.775275E-17,     0.000000E+00,     1.775275E-17
3.4200E+01,     1.777397E-17,     0.000000E+00,     1.777397E-17
3.4300E+01,     1.779518E-17,     0.000000E+00,     1.779518E-17
3.4400E+01,     1.781640E-17,     0.000000E+00,     1.781640E-17
3.4500E+01,     1.784229E-17,     0.000000E+00,     1.784229E-17
3.4600E+01,     1.787129E-17,     0.000000E+00,     1.787129E-17
3.4700E+01,     1.790029E-17,     0.000000E+00,     1.790029E-17
3.4800E+01,     1.792930E-17,     0.000000E+00,     1.792930E-17
3.4900E+01,     1.795830E-17,     0.000000E+00,     1.795830E-17
3.5000E+01,     1.798731E-17,     0.000000E+00,     1.798731E-17
3.5100E+01,     1.801631E-17,     0.000000E+00,     1.801631E-17
3.5200E+01,     1.804531E-17,     0.000000E+00,     1.804531E-17
3.5300E+01,     1.807432E-17,     0.000000E+00,     1.807432E-17
3.5400E+01,     1.810332E-17,     0.000000E+00,     1.810332E-17
3.5500E+01,     1.812310E-17,     0.000000E+00,     1.812310E-17
