# wavelength (nm) photoabsorption  photodissociation  photoionisation (cm^2)
4.959000e+00,    2.420000e-19,    0.000000e+00,    2.420000e-19
5.059000e+00,    2.521449e-19,    0.000000e+00,    2.521449e-19
5.159000e+00,    2.622899e-19,    0.000000e+00,    2.622899e-19
5.259000e+00,    2.675467e-19,    0.000000e+00,    2.675467e-19
5.359000e+00,    2.724356e-19,    0.000000e+00,    2.724356e-19
5.459000e+00,    2.801061e-19,    0.000000e+00,    2.801061e-19
5.559000e+00,    2.890857e-19,    0.000000e+00,    2.890857e-19
5.659000e+00,    2.988321e-19,    0.000000e+00,    2.988321e-19
5.759000e+00,    3.111455e-19,    0.000000e+00,    3.111455e-19
5.859000e+00,    3.234590e-19,    0.000000e+00,    3.234590e-19
5.959000e+00,    3.331017e-19,    0.000000e+00,    3.331017e-19
6.059000e+00,    3.405593e-19,    0.000000e+00,    3.405593e-19
6.159000e+00,    3.480169e-19,    0.000000e+00,    3.480169e-19
6.259000e+00,    3.570736e-19,    0.000000e+00,    3.570736e-19
6.359000e+00,    3.671963e-19,    0.000000e+00,    3.671963e-19
6.459000e+00,    3.773190e-19,    0.000000e+00,    3.773190e-19
6.559000e+00,    3.881212e-19,    0.000000e+00,    3.881212e-19
6.659000e+00,    4.002424e-19,    0.000000e+00,    4.002424e-19
6.759000e+00,    4.123636e-19,    0.000000e+00,    4.123636e-19
6.859000e+00,    4.244848e-19,    0.000000e+00,    4.244848e-19
6.959000e+00,    4.357136e-19,    0.000000e+00,    4.357136e-19
7.059000e+00,    4.465778e-19,    0.000000e+00,    4.465778e-19
7.159000e+00,    4.574420e-19,    0.000000e+00,    4.574420e-19
7.259000e+00,    4.683062e-19,    0.000000e+00,    4.683062e-19
7.359000e+00,    4.799605e-19,    0.000000e+00,    4.799605e-19
7.459000e+00,    4.920219e-19,    0.000000e+00,    4.920219e-19
7.559000e+00,    5.040833e-19,    0.000000e+00,    5.040833e-19
7.659000e+00,    5.161447e-19,    0.000000e+00,    5.161447e-19
7.759000e+00,    5.284894e-19,    0.000000e+00,    5.284894e-19
7.859000e+00,    5.433830e-19,    0.000000e+00,    5.433830e-19
7.959000e+00,    5.582766e-19,    0.000000e+00,    5.582766e-19
8.059000e+00,    5.731702e-19,    0.000000e+00,    5.731702e-19
8.159000e+00,    5.880638e-19,    0.000000e+00,    5.880638e-19
8.259000e+00,    6.029574e-19,    0.000000e+00,    6.029574e-19
8.359000e+00,    6.219474e-19,    0.000000e+00,    6.219474e-19
8.459000e+00,    6.412456e-19,    0.000000e+00,    6.412456e-19
8.559000e+00,    6.601279e-19,    0.000000e+00,    6.601279e-19
8.659000e+00,    6.742262e-19,    0.000000e+00,    6.742262e-19
8.759000e+00,    6.883246e-19,    0.000000e+00,    6.883246e-19
8.859000e+00,    7.026037e-19,    0.000000e+00,    7.026037e-19
8.959000e+00,    7.227256e-19,    0.000000e+00,    7.227256e-19
9.059000e+00,    7.428476e-19,    0.000000e+00,    7.428476e-19
9.159000e+00,    7.629695e-19,    0.000000e+00,    7.629695e-19
9.259000e+00,    7.820227e-19,    0.000000e+00,    7.820227e-19
9.359000e+00,    8.007195e-19,    0.000000e+00,    8.007195e-19
9.459000e+00,    8.194164e-19,    0.000000e+00,    8.194164e-19
9.559000e+00,    8.378010e-19,    0.000000e+00,    8.378010e-19
9.659000e+00,    8.550785e-19,    0.000000e+00,    8.550785e-19
9.759000e+00,    8.723560e-19,    0.000000e+00,    8.723560e-19
9.859000e+00,    8.896335e-19,    0.000000e+00,    8.896335e-19
9.959000e+00,    9.085645e-19,    0.000000e+00,    9.085645e-19
1.005900e+01,    9.299757e-19,    0.000000e+00,    9.299757e-19
1.015900e+01,    9.513869e-19,    0.000000e+00,    9.513869e-19
1.025900e+01,    9.727981e-19,    0.000000e+00,    9.727981e-19
1.035900e+01,    9.945733e-19,    0.000000e+00,    9.945733e-19
1.045900e+01,    1.017240e-18,    0.000000e+00,    1.017240e-18
1.055900e+01,    1.039907e-18,    0.000000e+00,    1.039907e-18
1.065900e+01,    1.062573e-18,    0.000000e+00,    1.062573e-18
1.075900e+01,    1.085240e-18,    0.000000e+00,    1.085240e-18
1.085900e+01,    1.106122e-18,    0.000000e+00,    1.106122e-18
1.095900e+01,    1.126531e-18,    0.000000e+00,    1.126531e-18
1.105900e+01,    1.146939e-18,    0.000000e+00,    1.146939e-18
1.115900e+01,    1.167347e-18,    0.000000e+00,    1.167347e-18
1.125900e+01,    1.187755e-18,    0.000000e+00,    1.187755e-18
1.135900e+01,    1.211426e-18,    0.000000e+00,    1.211426e-18
1.145900e+01,    1.235500e-18,    0.000000e+00,    1.235500e-18
1.155900e+01,    1.259574e-18,    0.000000e+00,    1.259574e-18
1.165900e+01,    1.283648e-18,    0.000000e+00,    1.283648e-18
1.175900e+01,    1.307722e-18,    0.000000e+00,    1.307722e-18
1.185900e+01,    1.330797e-18,    0.000000e+00,    1.330797e-18
1.195900e+01,    1.352831e-18,    0.000000e+00,    1.352831e-18
1.205900e+01,    1.374864e-18,    0.000000e+00,    1.374864e-18
1.215900e+01,    1.396898e-18,    0.000000e+00,    1.396898e-18
1.225900e+01,    1.418932e-18,    0.000000e+00,    1.418932e-18
1.235900e+01,    1.440966e-18,    0.000000e+00,    1.440966e-18
1.245900e+01,    1.467700e-18,    0.000000e+00,    1.467700e-18
1.255900e+01,    1.497700e-18,    0.000000e+00,    1.497700e-18
1.265900e+01,    1.527700e-18,    0.000000e+00,    1.527700e-18
1.275900e+01,    1.557700e-18,    0.000000e+00,    1.557700e-18
1.285900e+01,    1.587700e-18,    0.000000e+00,    1.587700e-18
1.295900e+01,    1.617700e-18,    0.000000e+00,    1.617700e-18
1.305900e+01,    1.647700e-18,    0.000000e+00,    1.647700e-18
1.315900e+01,    1.679386e-18,    0.000000e+00,    1.679386e-18
1.325900e+01,    1.712243e-18,    0.000000e+00,    1.712243e-18
1.335900e+01,    1.745100e-18,    0.000000e+00,    1.745100e-18
1.345900e+01,    1.777957e-18,    0.000000e+00,    1.777957e-18
1.355900e+01,    1.810814e-18,    0.000000e+00,    1.810814e-18
1.365900e+01,    1.843671e-18,    0.000000e+00,    1.843671e-18
1.375900e+01,    1.876529e-18,    0.000000e+00,    1.876529e-18
1.385900e+01,    1.909912e-18,    0.000000e+00,    1.909912e-18
1.395900e+01,    1.943662e-18,    0.000000e+00,    1.943662e-18
1.405900e+01,    1.977412e-18,    0.000000e+00,    1.977412e-18
1.415900e+01,    2.011162e-18,    0.000000e+00,    2.011162e-18
1.425900e+01,    2.044912e-18,    0.000000e+00,    2.044912e-18
1.435900e+01,    2.078662e-18,    0.000000e+00,    2.078662e-18
1.445900e+01,    2.112412e-18,    0.000000e+00,    2.112412e-18
1.455900e+01,    2.146162e-18,    0.000000e+00,    2.146162e-18
1.465900e+01,    2.178356e-18,    0.000000e+00,    2.178356e-18
1.475900e+01,    2.209467e-18,    0.000000e+00,    2.209467e-18
1.485900e+01,    2.240578e-18,    0.000000e+00,    2.240578e-18
1.495900e+01,    2.271689e-18,    0.000000e+00,    2.271689e-18
1.505900e+01,    2.302800e-18,    0.000000e+00,    2.302800e-18
1.515900e+01,    2.333911e-18,    0.000000e+00,    2.333911e-18
1.525900e+01,    2.365022e-18,    0.000000e+00,    2.365022e-18
1.535900e+01,    2.396133e-18,    0.000000e+00,    2.396133e-18
1.545900e+01,    2.427244e-18,    0.000000e+00,    2.427244e-18
1.555900e+01,    2.469500e-18,    0.000000e+00,    2.469500e-18
1.565900e+01,    2.519500e-18,    0.000000e+00,    2.519500e-18
1.575900e+01,    2.590150e-18,    0.000000e+00,    2.590150e-18
1.585900e+01,    2.675150e-18,    0.000000e+00,    2.675150e-18
1.595900e+01,    2.710000e-18,    0.000000e+00,    2.710000e-18
1.605900e+01,    2.710000e-18,    0.000000e+00,    2.710000e-18
1.615900e+01,    2.724750e-18,    0.000000e+00,    2.724750e-18
1.625900e+01,    2.749750e-18,    0.000000e+00,    2.749750e-18
1.635900e+01,    2.801300e-18,    0.000000e+00,    2.801300e-18
1.645900e+01,    2.871300e-18,    0.000000e+00,    2.871300e-18
1.655900e+01,    2.925567e-18,    0.000000e+00,    2.925567e-18
1.665900e+01,    2.968900e-18,    0.000000e+00,    2.968900e-18
1.675900e+01,    3.012233e-18,    0.000000e+00,    3.012233e-18
1.685900e+01,    3.065400e-18,    0.000000e+00,    3.065400e-18
1.695900e+01,    3.125400e-18,    0.000000e+00,    3.125400e-18
1.705900e+01,    3.155900e-18,    0.000000e+00,    3.155900e-18
1.715900e+01,    3.165900e-18,    0.000000e+00,    3.165900e-18
1.725900e+01,    3.211300e-18,    0.000000e+00,    3.211300e-18
1.735900e+01,    3.281300e-18,    0.000000e+00,    3.281300e-18
1.745900e+01,    3.351300e-18,    0.000000e+00,    3.351300e-18
1.755900e+01,    3.382950e-18,    0.000000e+00,    3.382950e-18
1.765900e+01,    3.387950e-18,    0.000000e+00,    3.387950e-18
1.775900e+01,    3.443100e-18,    0.000000e+00,    3.443100e-18
1.785900e+01,    3.533100e-18,    0.000000e+00,    3.533100e-18
1.795900e+01,    3.623100e-18,    0.000000e+00,    3.623100e-18
1.805900e+01,    3.698350e-18,    0.000000e+00,    3.698350e-18
1.815900e+01,    3.763350e-18,    0.000000e+00,    3.763350e-18
1.825900e+01,    3.809667e-18,    0.000000e+00,    3.809667e-18
1.835900e+01,    3.843000e-18,    0.000000e+00,    3.843000e-18
1.845900e+01,    3.876333e-18,    0.000000e+00,    3.876333e-18
1.855900e+01,    3.929333e-18,    0.000000e+00,    3.929333e-18
1.865900e+01,    3.996000e-18,    0.000000e+00,    3.996000e-18
1.875900e+01,    4.062667e-18,    0.000000e+00,    4.062667e-18
1.885900e+01,    4.117533e-18,    0.000000e+00,    4.117533e-18
1.895900e+01,    4.164200e-18,    0.000000e+00,    4.164200e-18
1.905900e+01,    4.210867e-18,    0.000000e+00,    4.210867e-18
1.915900e+01,    4.257533e-18,    0.000000e+00,    4.257533e-18
1.925900e+01,    4.304200e-18,    0.000000e+00,    4.304200e-18
1.935900e+01,    4.350867e-18,    0.000000e+00,    4.350867e-18
1.945900e+01,    4.413267e-18,    0.000000e+00,    4.413267e-18
1.955900e+01,    4.486600e-18,    0.000000e+00,    4.486600e-18
1.965900e+01,    4.559933e-18,    0.000000e+00,    4.559933e-18
1.975900e+01,    4.631300e-18,    0.000000e+00,    4.631300e-18
1.985900e+01,    4.701300e-18,    0.000000e+00,    4.701300e-18
1.995900e+01,    4.771300e-18,    0.000000e+00,    4.771300e-18
2.005900e+01,    4.831467e-18,    0.000000e+00,    4.831467e-18
2.015900e+01,    4.884800e-18,    0.000000e+00,    4.884800e-18
2.025900e+01,    4.938133e-18,    0.000000e+00,    4.938133e-18
2.035900e+01,    4.993925e-18,    0.000000e+00,    4.993925e-18
2.045900e+01,    5.051425e-18,    0.000000e+00,    5.051425e-18
2.055900e+01,    5.108925e-18,    0.000000e+00,    5.108925e-18
2.065900e+01,    5.166425e-18,    0.000000e+00,    5.166425e-18
2.075900e+01,    5.215567e-18,    0.000000e+00,    5.215567e-18
2.085900e+01,    5.258900e-18,    0.000000e+00,    5.258900e-18
2.095900e+01,    5.302233e-18,    0.000000e+00,    5.302233e-18
2.105900e+01,    5.368675e-18,    0.000000e+00,    5.368675e-18
2.115900e+01,    5.451175e-18,    0.000000e+00,    5.451175e-18
2.125900e+01,    5.533675e-18,    0.000000e+00,    5.533675e-18
2.135900e+01,    5.616175e-18,    0.000000e+00,    5.616175e-18
2.145900e+01,    5.683925e-18,    0.000000e+00,    5.683925e-18
2.155900e+01,    5.741425e-18,    0.000000e+00,    5.741425e-18
2.165900e+01,    5.798925e-18,    0.000000e+00,    5.798925e-18
2.175900e+01,    5.856425e-18,    0.000000e+00,    5.856425e-18
2.185900e+01,    5.946867e-18,    0.000000e+00,    5.946867e-18
2.195900e+01,    6.060200e-18,    0.000000e+00,    6.060200e-18
2.205900e+01,    6.173533e-18,    0.000000e+00,    6.173533e-18
2.215900e+01,    6.265725e-18,    0.000000e+00,    6.265725e-18
2.225900e+01,    6.343225e-18,    0.000000e+00,    6.343225e-18
2.235900e+01,    6.420725e-18,    0.000000e+00,    6.420725e-18
2.245900e+01,    6.498225e-18,    0.000000e+00,    6.498225e-18
2.255900e+01,    6.558320e-18,    0.000000e+00,    6.558320e-18
2.265900e+01,    6.606320e-18,    0.000000e+00,    6.606320e-18
2.275900e+01,    6.654320e-18,    0.000000e+00,    6.654320e-18
2.285900e+01,    6.702320e-18,    0.000000e+00,    6.702320e-18
2.295900e+01,    6.750320e-18,    0.000000e+00,    6.750320e-18
2.305900e+01,    6.821625e-18,    0.000000e+00,    6.821625e-18
2.315900e+01,    6.909125e-18,    0.000000e+00,    6.909125e-18
2.325900e+01,    6.996625e-18,    0.000000e+00,    6.996625e-18
2.335900e+01,    7.084125e-18,    0.000000e+00,    7.084125e-18
2.345900e+01,    7.179000e-18,    0.000000e+00,    7.179000e-18
2.355900e+01,    7.279000e-18,    0.000000e+00,    7.279000e-18
2.365900e+01,    7.379000e-18,    0.000000e+00,    7.379000e-18
2.375900e+01,    7.479000e-18,    0.000000e+00,    7.479000e-18
2.385900e+01,    7.537700e-18,    0.000000e+00,    7.537700e-18
2.395900e+01,    7.567700e-18,    0.000000e+00,    7.567700e-18
2.405900e+01,    7.597700e-18,    0.000000e+00,    7.597700e-18
2.415900e+01,    7.627700e-18,    0.000000e+00,    7.627700e-18
2.425900e+01,    7.657700e-18,    0.000000e+00,    7.657700e-18
2.435900e+01,    7.707760e-18,    0.000000e+00,    7.707760e-18
2.445900e+01,    7.771760e-18,    0.000000e+00,    7.771760e-18
2.455900e+01,    7.835760e-18,    0.000000e+00,    7.835760e-18
2.465900e+01,    7.899760e-18,    0.000000e+00,    7.899760e-18
2.475900e+01,    7.963760e-18,    0.000000e+00,    7.963760e-18
2.485900e+01,    8.058440e-18,    0.000000e+00,    8.058440e-18
2.495900e+01,    8.174440e-18,    0.000000e+00,    8.174440e-18
2.505900e+01,    8.290440e-18,    0.000000e+00,    8.290440e-18
2.515900e+01,    8.406440e-18,    0.000000e+00,    8.406440e-18
2.525900e+01,    8.522440e-18,    0.000000e+00,    8.522440e-18
2.535900e+01,    8.599500e-18,    0.000000e+00,    8.599500e-18
2.545900e+01,    8.649500e-18,    0.000000e+00,    8.649500e-18
2.555900e+01,    8.699500e-18,    0.000000e+00,    8.699500e-18
2.565900e+01,    8.749500e-18,    0.000000e+00,    8.749500e-18
2.575900e+01,    8.799500e-18,    0.000000e+00,    8.799500e-18
2.585900e+01,    8.868183e-18,    0.000000e+00,    8.868183e-18
2.595900e+01,    8.949850e-18,    0.000000e+00,    8.949850e-18
2.605900e+01,    9.031517e-18,    0.000000e+00,    9.031517e-18
2.615900e+01,    9.113183e-18,    0.000000e+00,    9.113183e-18
2.625900e+01,    9.194850e-18,    0.000000e+00,    9.194850e-18
2.635900e+01,    9.276517e-18,    0.000000e+00,    9.276517e-18
2.645900e+01,    9.370967e-18,    0.000000e+00,    9.370967e-18
2.655900e+01,    9.474300e-18,    0.000000e+00,    9.474300e-18
2.665900e+01,    9.577633e-18,    0.000000e+00,    9.577633e-18
2.675900e+01,    9.680967e-18,    0.000000e+00,    9.680967e-18
2.685900e+01,    9.784300e-18,    0.000000e+00,    9.784300e-18
2.695900e+01,    9.887633e-18,    0.000000e+00,    9.887633e-18
2.705900e+01,    9.966383e-18,    0.000000e+00,    9.966383e-18
2.715900e+01,    1.002805e-17,    0.000000e+00,    1.002805e-17
2.725900e+01,    1.008972e-17,    0.000000e+00,    1.008972e-17
2.735900e+01,    1.015138e-17,    0.000000e+00,    1.015138e-17
2.745900e+01,    1.021305e-17,    0.000000e+00,    1.021305e-17
2.755900e+01,    1.027472e-17,    0.000000e+00,    1.027472e-17
2.765900e+01,    1.034917e-17,    0.000000e+00,    1.034917e-17
2.775900e+01,    1.043250e-17,    0.000000e+00,    1.043250e-17
2.785900e+01,    1.051583e-17,    0.000000e+00,    1.051583e-17
2.795900e+01,    1.059917e-17,    0.000000e+00,    1.059917e-17
2.805900e+01,    1.068250e-17,    0.000000e+00,    1.068250e-17
2.815900e+01,    1.076583e-17,    0.000000e+00,    1.076583e-17
2.825900e+01,    1.088752e-17,    0.000000e+00,    1.088752e-17
2.835900e+01,    1.103585e-17,    0.000000e+00,    1.103585e-17
2.845900e+01,    1.118418e-17,    0.000000e+00,    1.118418e-17
2.855900e+01,    1.133252e-17,    0.000000e+00,    1.133252e-17
2.865900e+01,    1.148085e-17,    0.000000e+00,    1.148085e-17
2.875900e+01,    1.162918e-17,    0.000000e+00,    1.162918e-17
2.885900e+01,    1.173299e-17,    0.000000e+00,    1.173299e-17
2.895900e+01,    1.180584e-17,    0.000000e+00,    1.180584e-17
2.905900e+01,    1.187870e-17,    0.000000e+00,    1.187870e-17
2.915900e+01,    1.195156e-17,    0.000000e+00,    1.195156e-17
2.925900e+01,    1.202441e-17,    0.000000e+00,    1.202441e-17
2.935900e+01,    1.209727e-17,    0.000000e+00,    1.209727e-17
2.945900e+01,    1.217013e-17,    0.000000e+00,    1.217013e-17
2.955900e+01,    1.227501e-17,    0.000000e+00,    1.227501e-17
2.965900e+01,    1.240216e-17,    0.000000e+00,    1.240216e-17
2.975900e+01,    1.252930e-17,    0.000000e+00,    1.252930e-17
2.985900e+01,    1.265644e-17,    0.000000e+00,    1.265644e-17
2.995900e+01,    1.278359e-17,    0.000000e+00,    1.278359e-17
3.005900e+01,    1.291073e-17,    0.000000e+00,    1.291073e-17
3.015900e+01,    1.303787e-17,    0.000000e+00,    1.303787e-17
3.025900e+01,    1.312319e-17,    0.000000e+00,    1.312319e-17
3.035900e+01,    1.317944e-17,    0.000000e+00,    1.317944e-17
3.045900e+01,    1.323569e-17,    0.000000e+00,    1.323569e-17
3.055900e+01,    1.329194e-17,    0.000000e+00,    1.329194e-17
3.065900e+01,    1.334819e-17,    0.000000e+00,    1.334819e-17
3.075900e+01,    1.340444e-17,    0.000000e+00,    1.340444e-17
3.085900e+01,    1.346069e-17,    0.000000e+00,    1.346069e-17
3.095900e+01,    1.351694e-17,    0.000000e+00,    1.351694e-17
3.105900e+01,    1.359384e-17,    0.000000e+00,    1.359384e-17
3.115900e+01,    1.368509e-17,    0.000000e+00,    1.368509e-17
3.125900e+01,    1.377634e-17,    0.000000e+00,    1.377634e-17
3.135900e+01,    1.386759e-17,    0.000000e+00,    1.386759e-17
3.145900e+01,    1.395884e-17,    0.000000e+00,    1.395884e-17
3.155900e+01,    1.405009e-17,    0.000000e+00,    1.405009e-17
3.165900e+01,    1.414134e-17,    0.000000e+00,    1.414134e-17
3.175900e+01,    1.423259e-17,    0.000000e+00,    1.423259e-17
3.185900e+01,    1.430245e-17,    0.000000e+00,    1.430245e-17
3.195900e+01,    1.435745e-17,    0.000000e+00,    1.435745e-17
3.205900e+01,    1.441245e-17,    0.000000e+00,    1.441245e-17
3.215900e+01,    1.446745e-17,    0.000000e+00,    1.446745e-17
3.225900e+01,    1.452245e-17,    0.000000e+00,    1.452245e-17
3.235900e+01,    1.457745e-17,    0.000000e+00,    1.457745e-17
3.245900e+01,    1.463245e-17,    0.000000e+00,    1.463245e-17
3.255900e+01,    1.468745e-17,    0.000000e+00,    1.468745e-17
3.265900e+01,    1.477818e-17,    0.000000e+00,    1.477818e-17
3.275900e+01,    1.489373e-17,    0.000000e+00,    1.489373e-17
3.285900e+01,    1.500929e-17,    0.000000e+00,    1.500929e-17
3.295900e+01,    1.512484e-17,    0.000000e+00,    1.512484e-17
3.305900e+01,    1.524040e-17,    0.000000e+00,    1.524040e-17
3.315900e+01,    1.535596e-17,    0.000000e+00,    1.535596e-17
3.325900e+01,    1.547151e-17,    0.000000e+00,    1.547151e-17
3.335900e+01,    1.558707e-17,    0.000000e+00,    1.558707e-17
3.345900e+01,    1.570262e-17,    0.000000e+00,    1.570262e-17
3.355900e+01,    1.583916e-17,    0.000000e+00,    1.583916e-17
3.365900e+01,    1.599027e-17,    0.000000e+00,    1.599027e-17
3.375900e+01,    1.614138e-17,    0.000000e+00,    1.614138e-17
3.385900e+01,    1.629249e-17,    0.000000e+00,    1.629249e-17
3.395900e+01,    1.644360e-17,    0.000000e+00,    1.644360e-17
3.405900e+01,    1.659471e-17,    0.000000e+00,    1.659471e-17
3.415900e+01,    1.674582e-17,    0.000000e+00,    1.674582e-17
3.425900e+01,    1.689693e-17,    0.000000e+00,    1.689693e-17
3.435900e+01,    1.704804e-17,    0.000000e+00,    1.704804e-17
3.445900e+01,    1.714481e-17,    0.000000e+00,    1.714481e-17
3.455900e+01,    1.720381e-17,    0.000000e+00,    1.720381e-17
3.465900e+01,    1.726281e-17,    0.000000e+00,    1.726281e-17
3.475900e+01,    1.732181e-17,    0.000000e+00,    1.732181e-17
3.485900e+01,    1.738081e-17,    0.000000e+00,    1.738081e-17
3.495900e+01,    1.743981e-17,    0.000000e+00,    1.743981e-17
3.505900e+01,    1.749881e-17,    0.000000e+00,    1.749881e-17
3.515900e+01,    1.755781e-17,    0.000000e+00,    1.755781e-17
3.525900e+01,    1.761681e-17,    0.000000e+00,    1.761681e-17
3.535900e+01,    1.767581e-17,    0.000000e+00,    1.767581e-17
3.545900e+01,    1.780245e-17,    0.000000e+00,    1.780245e-17
3.555900e+01,    1.797608e-17,    0.000000e+00,    1.797608e-17
3.565900e+01,    1.814972e-17,    0.000000e+00,    1.814972e-17
3.575900e+01,    1.832335e-17,    0.000000e+00,    1.832335e-17
3.585900e+01,    1.849699e-17,    0.000000e+00,    1.849699e-17
3.595900e+01,    1.867063e-17,    0.000000e+00,    1.867063e-17
