# wavelength (nm) photoabsorption  photodissociation  photoionisation (cm^2)
5.260000e+01,    3.039000e-17,    0.000000e+00,    3.039000e-17
5.270000e+01,    3.052462e-17,    0.000000e+00,    3.052462e-17
5.280000e+01,    3.065923e-17,    0.000000e+00,    3.065923e-17
5.290000e+01,    3.079385e-17,    0.000000e+00,    3.079385e-17
5.300000e+01,    3.092846e-17,    0.000000e+00,    3.092846e-17
5.310000e+01,    3.106308e-17,    0.000000e+00,    3.106308e-17
5.320000e+01,    3.119769e-17,    0.000000e+00,    3.119769e-17
5.330000e+01,    3.133231e-17,    0.000000e+00,    3.133231e-17
5.340000e+01,    3.146692e-17,    0.000000e+00,    3.146692e-17
5.350000e+01,    3.160154e-17,    0.000000e+00,    3.160154e-17
5.360000e+01,    3.173615e-17,    0.000000e+00,    3.173615e-17
5.370000e+01,    3.187077e-17,    0.000000e+00,    3.187077e-17
5.380000e+01,    3.200538e-17,    0.000000e+00,    3.200538e-17
5.390000e+01,    3.214000e-17,    0.000000e+00,    3.214000e-17
5.400000e+01,    3.205375e-17,    0.000000e+00,    3.205375e-17
5.410000e+01,    3.196750e-17,    0.000000e+00,    3.196750e-17
5.420000e+01,    3.188125e-17,    0.000000e+00,    3.188125e-17
5.430000e+01,    3.179500e-17,    0.000000e+00,    3.179500e-17
5.440000e+01,    3.170875e-17,    0.000000e+00,    3.170875e-17
5.450000e+01,    3.162250e-17,    0.000000e+00,    3.162250e-17
5.460000e+01,    3.153625e-17,    0.000000e+00,    3.153625e-17
5.470000e+01,    3.145000e-17,    0.000000e+00,    3.145000e-17
5.480000e+01,    3.136375e-17,    0.000000e+00,    3.136375e-17
5.490000e+01,    3.127750e-17,    0.000000e+00,    3.127750e-17
5.500000e+01,    3.119125e-17,    0.000000e+00,    3.119125e-17
5.510000e+01,    3.110500e-17,    0.000000e+00,    3.110500e-17
5.520000e+01,    3.101875e-17,    0.000000e+00,    3.101875e-17
5.530000e+01,    3.093250e-17,    0.000000e+00,    3.093250e-17
5.540000e+01,    3.084625e-17,    0.000000e+00,    3.084625e-17
5.550000e+01,    3.076000e-17,    0.000000e+00,    3.076000e-17
5.560000e+01,    3.081038e-17,    0.000000e+00,    3.081038e-17
5.570000e+01,    3.086077e-17,    0.000000e+00,    3.086077e-17
5.580000e+01,    3.091115e-17,    0.000000e+00,    3.091115e-17
5.590000e+01,    3.096154e-17,    0.000000e+00,    3.096154e-17
5.600000e+01,    3.101192e-17,    0.000000e+00,    3.101192e-17
5.610000e+01,    3.106231e-17,    0.000000e+00,    3.106231e-17
5.620000e+01,    3.111269e-17,    0.000000e+00,    3.111269e-17
5.630000e+01,    3.116308e-17,    0.000000e+00,    3.116308e-17
5.640000e+01,    3.121346e-17,    0.000000e+00,    3.121346e-17
5.650000e+01,    3.126385e-17,    0.000000e+00,    3.126385e-17
5.660000e+01,    3.131423e-17,    0.000000e+00,    3.131423e-17
5.670000e+01,    3.136462e-17,    0.000000e+00,    3.136462e-17
5.680000e+01,    3.141500e-17,    0.000000e+00,    3.141500e-17
5.690000e+01,    3.146538e-17,    0.000000e+00,    3.146538e-17
5.700000e+01,    3.151577e-17,    0.000000e+00,    3.151577e-17
5.710000e+01,    3.156615e-17,    0.000000e+00,    3.156615e-17
5.720000e+01,    3.161654e-17,    0.000000e+00,    3.161654e-17
5.730000e+01,    3.166692e-17,    0.000000e+00,    3.166692e-17
5.740000e+01,    3.171731e-17,    0.000000e+00,    3.171731e-17
5.750000e+01,    3.176769e-17,    0.000000e+00,    3.176769e-17
5.760000e+01,    3.181808e-17,    0.000000e+00,    3.181808e-17
5.770000e+01,    3.186846e-17,    0.000000e+00,    3.186846e-17
5.780000e+01,    3.191885e-17,    0.000000e+00,    3.191885e-17
5.790000e+01,    3.196923e-17,    0.000000e+00,    3.196923e-17
5.800000e+01,    3.201962e-17,    0.000000e+00,    3.201962e-17
5.810000e+01,    3.207000e-17,    0.000000e+00,    3.207000e-17
5.820000e+01,    3.224000e-17,    0.000000e+00,    3.224000e-17
5.830000e+01,    3.241000e-17,    0.000000e+00,    3.241000e-17
5.840000e+01,    3.258000e-17,    0.000000e+00,    3.258000e-17
5.850000e+01,    3.275000e-17,    0.000000e+00,    3.275000e-17
5.860000e+01,    3.292000e-17,    0.000000e+00,    3.292000e-17
5.870000e+01,    3.309000e-17,    0.000000e+00,    3.309000e-17
5.880000e+01,    3.326000e-17,    0.000000e+00,    3.326000e-17
5.890000e+01,    3.343000e-17,    0.000000e+00,    3.343000e-17
5.900000e+01,    3.360000e-17,    0.000000e+00,    3.360000e-17
5.910000e+01,    3.377000e-17,    0.000000e+00,    3.377000e-17
5.920000e+01,    3.394000e-17,    0.000000e+00,    3.394000e-17
5.930000e+01,    3.411000e-17,    0.000000e+00,    3.411000e-17
5.940000e+01,    3.428000e-17,    0.000000e+00,    3.428000e-17
5.950000e+01,    3.445000e-17,    0.000000e+00,    3.445000e-17
5.960000e+01,    3.462000e-17,    0.000000e+00,    3.462000e-17
5.970000e+01,    3.479000e-17,    0.000000e+00,    3.479000e-17
5.980000e+01,    3.496000e-17,    0.000000e+00,    3.496000e-17
5.990000e+01,    3.513000e-17,    0.000000e+00,    3.513000e-17
6.000000e+01,    3.530000e-17,    0.000000e+00,    3.530000e-17
6.010000e+01,    3.528563e-17,    0.000000e+00,    3.528563e-17
6.020000e+01,    3.527126e-17,    0.000000e+00,    3.527126e-17
6.030000e+01,    3.525689e-17,    0.000000e+00,    3.525689e-17
6.040000e+01,    3.524252e-17,    0.000000e+00,    3.524252e-17
6.050000e+01,    3.522816e-17,    0.000000e+00,    3.522816e-17
6.060000e+01,    3.521379e-17,    0.000000e+00,    3.521379e-17
6.070000e+01,    3.519942e-17,    0.000000e+00,    3.519942e-17
6.080000e+01,    3.518505e-17,    0.000000e+00,    3.518505e-17
6.090000e+01,    3.517068e-17,    0.000000e+00,    3.517068e-17
6.100000e+01,    3.515631e-17,    0.000000e+00,    3.515631e-17
6.110000e+01,    3.515331e-17,    0.000000e+00,    3.515331e-17
6.120000e+01,    3.515031e-17,    0.000000e+00,    3.515031e-17
6.130000e+01,    3.514731e-17,    0.000000e+00,    3.514731e-17
6.140000e+01,    3.514432e-17,    0.000000e+00,    3.514432e-17
6.150000e+01,    3.514132e-17,    0.000000e+00,    3.514132e-17
6.160000e+01,    3.506781e-17,    0.000000e+00,    3.506781e-17
6.170000e+01,    3.499431e-17,    0.000000e+00,    3.499431e-17
6.180000e+01,    3.492081e-17,    0.000000e+00,    3.492081e-17
6.190000e+01,    3.484731e-17,    0.000000e+00,    3.484731e-17
6.200000e+01,    3.477380e-17,    0.000000e+00,    3.477380e-17
6.210000e+01,    3.479891e-17,    0.000000e+00,    3.479891e-17
6.220000e+01,    3.482402e-17,    0.000000e+00,    3.482402e-17
6.230000e+01,    3.484912e-17,    0.000000e+00,    3.484912e-17
6.240000e+01,    3.487423e-17,    0.000000e+00,    3.487423e-17
6.250000e+01,    3.489933e-17,    0.000000e+00,    3.489933e-17
6.260000e+01,    3.492280e-17,    0.000000e+00,    3.492280e-17
6.270000e+01,    3.494626e-17,    0.000000e+00,    3.494626e-17
6.280000e+01,    3.496972e-17,    0.000000e+00,    3.496972e-17
6.290000e+01,    3.499318e-17,    0.000000e+00,    3.499318e-17
6.300000e+01,    3.501664e-17,    0.000000e+00,    3.501664e-17
6.310000e+01,    3.500604e-17,    0.000000e+00,    3.500604e-17
6.320000e+01,    3.499543e-17,    0.000000e+00,    3.499543e-17
6.330000e+01,    3.498483e-17,    0.000000e+00,    3.498483e-17
6.340000e+01,    3.497422e-17,    0.000000e+00,    3.497422e-17
6.350000e+01,    3.496362e-17,    0.000000e+00,    3.496362e-17
6.360000e+01,    3.492991e-17,    0.000000e+00,    3.492991e-17
6.370000e+01,    3.489619e-17,    0.000000e+00,    3.489619e-17
6.380000e+01,    3.486248e-17,    0.000000e+00,    3.486248e-17
6.390000e+01,    3.482876e-17,    0.000000e+00,    3.482876e-17
6.400000e+01,    3.479505e-17,    0.000000e+00,    3.479505e-17
6.410000e+01,    3.485819e-17,    0.000000e+00,    3.485819e-17
6.420000e+01,    3.492134e-17,    0.000000e+00,    3.492134e-17
6.430000e+01,    3.498449e-17,    0.000000e+00,    3.498449e-17
6.440000e+01,    3.504763e-17,    0.000000e+00,    3.504763e-17
6.450000e+01,    3.511078e-17,    0.000000e+00,    3.511078e-17
6.460000e+01,    3.507996e-17,    0.000000e+00,    3.507996e-17
6.470000e+01,    3.504914e-17,    0.000000e+00,    3.504914e-17
6.480000e+01,    3.501832e-17,    0.000000e+00,    3.501832e-17
6.490000e+01,    3.498749e-17,    0.000000e+00,    3.498749e-17
6.500000e+01,    3.495667e-17,    0.000000e+00,    3.495667e-17
6.510000e+01,    3.502755e-17,    0.000000e+00,    3.502755e-17
6.520000e+01,    3.509843e-17,    0.000000e+00,    3.509843e-17
6.530000e+01,    3.516930e-17,    0.000000e+00,    3.516930e-17
6.540000e+01,    3.524018e-17,    0.000000e+00,    3.524018e-17
6.550000e+01,    3.531106e-17,    0.000000e+00,    3.531106e-17
6.560000e+01,    3.541012e-17,    0.000000e+00,    3.541012e-17
6.570000e+01,    3.550918e-17,    0.000000e+00,    3.550918e-17
6.580000e+01,    3.560824e-17,    0.000000e+00,    3.560824e-17
6.590000e+01,    3.570730e-17,    0.000000e+00,    3.570730e-17
6.600000e+01,    3.580636e-17,    0.000000e+00,    3.580636e-17
6.610000e+01,    3.573371e-17,    0.000000e+00,    3.573371e-17
6.620000e+01,    3.566105e-17,    0.000000e+00,    3.566105e-17
6.630000e+01,    3.558840e-17,    0.000000e+00,    3.558840e-17
6.640000e+01,    3.551575e-17,    0.000000e+00,    3.551575e-17
6.650000e+01,    3.544309e-17,    0.000000e+00,    3.544309e-17
6.660000e+01,    3.548875e-17,    0.000000e+00,    3.548875e-17
6.670000e+01,    3.553440e-17,    0.000000e+00,    3.553440e-17
6.680000e+01,    3.558005e-17,    0.000000e+00,    3.558005e-17
6.690000e+01,    3.562570e-17,    0.000000e+00,    3.562570e-17
6.700000e+01,    3.567135e-17,    0.000000e+00,    3.567135e-17
6.710000e+01,    3.560456e-17,    0.000000e+00,    3.560456e-17
6.720000e+01,    3.553777e-17,    0.000000e+00,    3.553777e-17
6.730000e+01,    3.547098e-17,    0.000000e+00,    3.547098e-17
6.740000e+01,    3.540418e-17,    0.000000e+00,    3.540418e-17
6.750000e+01,    3.533739e-17,    0.000000e+00,    3.533739e-17
6.760000e+01,    3.538514e-17,    0.000000e+00,    3.538514e-17
6.770000e+01,    3.543289e-17,    0.000000e+00,    3.543289e-17
6.780000e+01,    3.548064e-17,    0.000000e+00,    3.548064e-17
6.790000e+01,    3.552839e-17,    0.000000e+00,    3.552839e-17
6.800000e+01,    3.557614e-17,    0.000000e+00,    3.557614e-17
6.810000e+01,    3.552229e-17,    0.000000e+00,    3.552229e-17
6.820000e+01,    3.546845e-17,    0.000000e+00,    3.546845e-17
6.830000e+01,    3.541460e-17,    0.000000e+00,    3.541460e-17
6.840000e+01,    3.536075e-17,    0.000000e+00,    3.536075e-17
6.850000e+01,    3.530690e-17,    0.000000e+00,    3.530690e-17
6.860000e+01,    3.526991e-17,    0.000000e+00,    3.526991e-17
6.870000e+01,    3.523292e-17,    0.000000e+00,    3.523292e-17
6.880000e+01,    3.519593e-17,    0.000000e+00,    3.519593e-17
6.890000e+01,    3.515894e-17,    0.000000e+00,    3.515894e-17
6.900000e+01,    3.512195e-17,    0.000000e+00,    3.512195e-17
6.910000e+01,    3.500755e-17,    0.000000e+00,    3.500755e-17
6.920000e+01,    3.489315e-17,    0.000000e+00,    3.489315e-17
6.930000e+01,    3.477875e-17,    0.000000e+00,    3.477875e-17
6.940000e+01,    3.466435e-17,    0.000000e+00,    3.466435e-17
6.950000e+01,    3.454995e-17,    0.000000e+00,    3.454995e-17
6.960000e+01,    3.451999e-17,    0.000000e+00,    3.451999e-17
6.970000e+01,    3.449002e-17,    0.000000e+00,    3.449002e-17
6.980000e+01,    3.446006e-17,    0.000000e+00,    3.446006e-17
6.990000e+01,    3.443010e-17,    0.000000e+00,    3.443010e-17
7.000000e+01,    3.440014e-17,    0.000000e+00,    3.440014e-17
7.010000e+01,    3.432358e-17,    0.000000e+00,    3.432358e-17
7.020000e+01,    3.424701e-17,    0.000000e+00,    3.424701e-17
7.030000e+01,    3.417045e-17,    0.000000e+00,    3.417045e-17
7.040000e+01,    3.409388e-17,    0.000000e+00,    3.409388e-17
7.050000e+01,    3.401732e-17,    0.000000e+00,    3.401732e-17
7.060000e+01,    3.393215e-17,    0.000000e+00,    3.393215e-17
7.070000e+01,    3.384698e-17,    0.000000e+00,    3.384698e-17
7.080000e+01,    3.376180e-17,    0.000000e+00,    3.376180e-17
7.090000e+01,    3.367663e-17,    0.000000e+00,    3.367663e-17
7.100000e+01,    3.359146e-17,    0.000000e+00,    3.359146e-17
7.110000e+01,    3.346731e-17,    0.000000e+00,    3.346731e-17
7.120000e+01,    3.334316e-17,    0.000000e+00,    3.334316e-17
7.130000e+01,    3.321901e-17,    0.000000e+00,    3.321901e-17
7.140000e+01,    3.309486e-17,    0.000000e+00,    3.309486e-17
7.150000e+01,    3.297071e-17,    0.000000e+00,    3.297071e-17
7.160000e+01,    3.293424e-17,    0.000000e+00,    3.293424e-17
7.170000e+01,    3.289778e-17,    0.000000e+00,    3.289778e-17
7.180000e+01,    3.286131e-17,    0.000000e+00,    3.286131e-17
7.190000e+01,    3.282484e-17,    0.000000e+00,    3.282484e-17
7.200000e+01,    3.278837e-17,    0.000000e+00,    3.278837e-17
7.210000e+01,    3.275378e-17,    0.000000e+00,    3.275378e-17
7.220000e+01,    3.271919e-17,    0.000000e+00,    3.271919e-17
7.230000e+01,    3.268459e-17,    0.000000e+00,    3.268459e-17
7.240000e+01,    3.265000e-17,    0.000000e+00,    3.265000e-17
7.250000e+01,    3.261541e-17,    0.000000e+00,    3.261541e-17
7.260000e+01,    3.263367e-17,    0.000000e+00,    3.263367e-17
7.270000e+01,    3.265194e-17,    0.000000e+00,    3.265194e-17
7.280000e+01,    3.267020e-17,    0.000000e+00,    3.267020e-17
7.290000e+01,    3.268847e-17,    0.000000e+00,    3.268847e-17
7.300000e+01,    3.270673e-17,    0.000000e+00,    3.270673e-17
7.310000e+01,    3.275427e-17,    0.000000e+00,    3.275427e-17
7.320000e+01,    3.280180e-17,    0.000000e+00,    3.280180e-17
7.330000e+01,    3.284934e-17,    0.000000e+00,    3.284934e-17
7.340000e+01,    3.289688e-17,    0.000000e+00,    3.289688e-17
7.350000e+01,    3.294441e-17,    0.000000e+00,    3.294441e-17
7.360000e+01,    3.290766e-17,    0.000000e+00,    3.290766e-17
7.370000e+01,    3.287091e-17,    0.000000e+00,    3.287091e-17
7.380000e+01,    3.283415e-17,    0.000000e+00,    3.283415e-17
7.390000e+01,    3.279740e-17,    0.000000e+00,    3.279740e-17
7.400000e+01,    3.276065e-17,    0.000000e+00,    3.276065e-17
7.410000e+01,    3.268990e-17,    0.000000e+00,    3.268990e-17
7.420000e+01,    3.261915e-17,    0.000000e+00,    3.261915e-17
7.430000e+01,    3.254839e-17,    0.000000e+00,    3.254839e-17
7.440000e+01,    3.247764e-17,    0.000000e+00,    3.247764e-17
7.450000e+01,    3.240689e-17,    0.000000e+00,    3.240689e-17
7.460000e+01,    3.256837e-17,    0.000000e+00,    3.256837e-17
7.470000e+01,    3.272985e-17,    0.000000e+00,    3.272985e-17
7.480000e+01,    3.289134e-17,    0.000000e+00,    3.289134e-17
7.490000e+01,    3.305282e-17,    0.000000e+00,    3.305282e-17
7.500000e+01,    3.321430e-17,    0.000000e+00,    3.321430e-17
7.510000e+01,    3.330339e-17,    0.000000e+00,    3.330339e-17
7.520000e+01,    3.339247e-17,    0.000000e+00,    3.339247e-17
7.530000e+01,    3.348156e-17,    0.000000e+00,    3.348156e-17
7.540000e+01,    3.357065e-17,    0.000000e+00,    3.357065e-17
7.550000e+01,    3.365974e-17,    0.000000e+00,    3.365974e-17
7.560000e+01,    3.361230e-17,    0.000000e+00,    3.361230e-17
7.570000e+01,    3.356487e-17,    0.000000e+00,    3.356487e-17
7.580000e+01,    3.351743e-17,    0.000000e+00,    3.351743e-17
7.590000e+01,    3.347000e-17,    0.000000e+00,    3.347000e-17
7.600000e+01,    3.342257e-17,    0.000000e+00,    3.342257e-17
7.610000e+01,    3.336663e-17,    0.000000e+00,    3.336663e-17
7.620000e+01,    3.331070e-17,    0.000000e+00,    3.331070e-17
7.630000e+01,    3.325477e-17,    0.000000e+00,    3.325477e-17
7.640000e+01,    3.319884e-17,    0.000000e+00,    3.319884e-17
7.650000e+01,    3.314291e-17,    0.000000e+00,    3.314291e-17
7.660000e+01,    3.303307e-17,    0.000000e+00,    3.303307e-17
7.670000e+01,    3.292323e-17,    0.000000e+00,    3.292323e-17
7.680000e+01,    3.281339e-17,    0.000000e+00,    3.281339e-17
7.690000e+01,    3.270355e-17,    0.000000e+00,    3.270355e-17
7.700000e+01,    3.259372e-17,    0.000000e+00,    3.259372e-17
7.710000e+01,    3.255582e-17,    0.000000e+00,    3.255582e-17
7.720000e+01,    3.251793e-17,    0.000000e+00,    3.251793e-17
7.730000e+01,    3.248003e-17,    0.000000e+00,    3.248003e-17
7.740000e+01,    3.244214e-17,    0.000000e+00,    3.244214e-17
7.750000e+01,    3.240425e-17,    0.000000e+00,    3.240425e-17
7.760000e+01,    3.226158e-17,    0.000000e+00,    3.226158e-17
7.770000e+01,    3.211892e-17,    0.000000e+00,    3.211892e-17
7.780000e+01,    3.197626e-17,    0.000000e+00,    3.197626e-17
7.790000e+01,    3.183360e-17,    0.000000e+00,    3.183360e-17
7.800000e+01,    3.169094e-17,    0.000000e+00,    3.169094e-17
7.810000e+01,    3.157443e-17,    0.000000e+00,    3.157443e-17
7.820000e+01,    3.145793e-17,    0.000000e+00,    3.145793e-17
7.830000e+01,    3.134142e-17,    0.000000e+00,    3.134142e-17
7.840000e+01,    3.122492e-17,    0.000000e+00,    3.122492e-17
7.850000e+01,    3.110841e-17,    0.000000e+00,    3.110841e-17
7.860000e+01,    3.095503e-17,    0.000000e+00,    3.095503e-17
7.870000e+01,    3.080165e-17,    0.000000e+00,    3.080165e-17
7.880000e+01,    3.064826e-17,    0.000000e+00,    3.064826e-17
7.890000e+01,    3.049488e-17,    0.000000e+00,    3.049488e-17
7.900000e+01,    3.034150e-17,    0.000000e+00,    3.034150e-17
7.910000e+01,    3.007132e-17,    0.000000e+00,    3.007132e-17
7.920000e+01,    2.980114e-17,    0.000000e+00,    2.980114e-17
7.930000e+01,    2.953096e-17,    0.000000e+00,    2.953096e-17
7.940000e+01,    2.926079e-17,    0.000000e+00,    2.926079e-17
7.950000e+01,    2.899061e-17,    0.000000e+00,    2.899061e-17
7.960000e+01,    2.881134e-17,    0.000000e+00,    2.881134e-17
7.970000e+01,    2.863207e-17,    0.000000e+00,    2.863207e-17
7.980000e+01,    2.845281e-17,    0.000000e+00,    2.845281e-17
7.990000e+01,    2.827354e-17,    0.000000e+00,    2.827354e-17
8.000000e+01,    2.809427e-17,    0.000000e+00,    2.809427e-17
8.010000e+01,    2.785135e-17,    0.000000e+00,    2.785135e-17
8.020000e+01,    2.760843e-17,    0.000000e+00,    2.760843e-17
8.030000e+01,    2.736550e-17,    0.000000e+00,    2.736550e-17
8.040000e+01,    2.712258e-17,    0.000000e+00,    2.712258e-17
8.050000e+01,    2.687966e-17,    0.000000e+00,    2.687966e-17
8.060000e+01,    2.661883e-17,    0.000000e+00,    2.661883e-17
8.070000e+01,    2.635800e-17,    0.000000e+00,    2.635800e-17
8.080000e+01,    2.609717e-17,    0.000000e+00,    2.609717e-17
8.090000e+01,    2.583634e-17,    0.000000e+00,    2.583634e-17
8.100000e+01,    2.557552e-17,    0.000000e+00,    2.557552e-17
8.110000e+01,    2.532149e-17,    0.000000e+00,    2.532149e-17
8.120000e+01,    2.506746e-17,    0.000000e+00,    2.506746e-17
8.130000e+01,    2.481343e-17,    0.000000e+00,    2.481343e-17
8.140000e+01,    2.455940e-17,    0.000000e+00,    2.455940e-17
8.150000e+01,    2.430537e-17,    0.000000e+00,    2.430537e-17
8.160000e+01,    2.444996e-17,    0.000000e+00,    2.444996e-17
8.170000e+01,    2.459456e-17,    0.000000e+00,    2.459456e-17
8.180000e+01,    2.473915e-17,    0.000000e+00,    2.473915e-17
8.190000e+01,    2.488374e-17,    0.000000e+00,    2.488374e-17
8.200000e+01,    2.502834e-17,    0.000000e+00,    2.502834e-17
8.210000e+01,    2.493123e-17,    0.000000e+00,    2.493123e-17
8.220000e+01,    2.483413e-17,    0.000000e+00,    2.483413e-17
8.230000e+01,    2.473702e-17,    0.000000e+00,    2.473702e-17
8.240000e+01,    2.463992e-17,    0.000000e+00,    2.463992e-17
8.250000e+01,    2.454281e-17,    0.000000e+00,    2.454281e-17
8.260000e+01,    2.443388e-17,    0.000000e+00,    2.443388e-17
8.270000e+01,    2.432494e-17,    0.000000e+00,    2.432494e-17
8.280000e+01,    2.421600e-17,    0.000000e+00,    2.421600e-17
8.290000e+01,    2.410707e-17,    0.000000e+00,    2.410707e-17
8.300000e+01,    2.399813e-17,    0.000000e+00,    2.399813e-17
8.310000e+01,    2.387473e-17,    0.000000e+00,    2.387473e-17
8.320000e+01,    2.375134e-17,    0.000000e+00,    2.375134e-17
8.330000e+01,    2.362794e-17,    0.000000e+00,    2.362794e-17
8.340000e+01,    2.350454e-17,    0.000000e+00,    2.350454e-17
8.350000e+01,    2.338114e-17,    0.000000e+00,    2.338114e-17
8.360000e+01,    2.325562e-17,    0.000000e+00,    2.325562e-17
