# wavelength (nm) photoabsorption  photodissociation  photoionisation (cm^2) from Grosch(2015) at 773 K
2.0210E+02,     6.6400E-18,     6.6400E-18,     0.0000E+00
2.0220E+02,     6.5900E-18,     6.5900E-18,     0.0000E+00
2.0230E+02,     6.5400E-18,     6.5400E-18,     0.0000E+00
2.0240E+02,     6.4800E-18,     6.4800E-18,     0.0000E+00
2.0250E+02,     6.4300E-18,     6.4300E-18,     0.0000E+00
2.0260E+02,     6.3571E-18,     6.3571E-18,     0.0000E+00
2.0270E+02,     6.3171E-18,     6.3171E-18,     0.0000E+00
2.0280E+02,     6.2600E-18,     6.2600E-18,     0.0000E+00
2.0290E+02,     6.1943E-18,     6.1943E-18,     0.0000E+00
2.0300E+02,     6.1300E-18,     6.1300E-18,     0.0000E+00
2.0310E+02,     6.0929E-18,     6.0929E-18,     0.0000E+00
2.0320E+02,     6.0300E-18,     6.0300E-18,     0.0000E+00
2.0330E+02,     5.9800E-18,     5.9800E-18,     0.0000E+00
2.0340E+02,     5.9186E-18,     5.9186E-18,     0.0000E+00
2.0350E+02,     5.8657E-18,     5.8657E-18,     0.0000E+00
2.0360E+02,     5.7914E-18,     5.7914E-18,     0.0000E+00
2.0370E+02,     5.7486E-18,     5.7486E-18,     0.0000E+00
2.0380E+02,     5.7000E-18,     5.7000E-18,     0.0000E+00
2.0390E+02,     5.6400E-18,     5.6400E-18,     0.0000E+00
2.0400E+02,     5.5800E-18,     5.5800E-18,     0.0000E+00
2.0410E+02,     5.5400E-18,     5.5400E-18,     0.0000E+00
2.0420E+02,     5.5029E-18,     5.5029E-18,     0.0000E+00
2.0430E+02,     5.4600E-18,     5.4600E-18,     0.0000E+00
2.0440E+02,     5.3986E-18,     5.3986E-18,     0.0000E+00
2.0450E+02,     5.3500E-18,     5.3500E-18,     0.0000E+00
2.0460E+02,     5.2943E-18,     5.2943E-18,     0.0000E+00
2.0470E+02,     5.2400E-18,     5.2400E-18,     0.0000E+00
2.0480E+02,     5.1700E-18,     5.1700E-18,     0.0000E+00
2.0490E+02,     5.1400E-18,     5.1400E-18,     0.0000E+00
2.0500E+02,     5.0971E-18,     5.0971E-18,     0.0000E+00
2.0510E+02,     5.0557E-18,     5.0557E-18,     0.0000E+00
2.0520E+02,     5.0200E-18,     5.0200E-18,     0.0000E+00
2.0530E+02,     4.9786E-18,     4.9786E-18,     0.0000E+00
2.0540E+02,     4.9300E-18,     4.9300E-18,     0.0000E+00
2.0550E+02,     4.8729E-18,     4.8729E-18,     0.0000E+00
2.0560E+02,     4.8200E-18,     4.8200E-18,     0.0000E+00
2.0570E+02,     4.7829E-18,     4.7829E-18,     0.0000E+00
2.0580E+02,     4.7414E-18,     4.7414E-18,     0.0000E+00
2.0590E+02,     4.7100E-18,     4.7100E-18,     0.0000E+00
2.0600E+02,     4.6700E-18,     4.6700E-18,     0.0000E+00
2.0610E+02,     4.6300E-18,     4.6300E-18,     0.0000E+00
2.0620E+02,     4.5857E-18,     4.5857E-18,     0.0000E+00
2.0630E+02,     4.5300E-18,     4.5300E-18,     0.0000E+00
2.0640E+02,     4.4900E-18,     4.4900E-18,     0.0000E+00
2.0650E+02,     4.4600E-18,     4.4600E-18,     0.0000E+00
2.0660E+02,     4.4257E-18,     4.4257E-18,     0.0000E+00
2.0670E+02,     4.3900E-18,     4.3900E-18,     0.0000E+00
2.0680E+02,     4.3400E-18,     4.3400E-18,     0.0000E+00
2.0690E+02,     4.3100E-18,     4.3100E-18,     0.0000E+00
2.0700E+02,     4.2686E-18,     4.2686E-18,     0.0000E+00
2.0710E+02,     4.2463E-18,     4.2463E-18,     0.0000E+00
2.0720E+02,     4.2000E-18,     4.2000E-18,     0.0000E+00
2.0730E+02,     4.1500E-18,     4.1500E-18,     0.0000E+00
2.0740E+02,     4.1100E-18,     4.1100E-18,     0.0000E+00
2.0750E+02,     4.0700E-18,     4.0700E-18,     0.0000E+00
2.0760E+02,     4.0471E-18,     4.0471E-18,     0.0000E+00
2.0770E+02,     4.0243E-18,     4.0243E-18,     0.0000E+00
2.0780E+02,     3.9871E-18,     3.9871E-18,     0.0000E+00
2.0790E+02,     3.9300E-18,     3.9300E-18,     0.0000E+00
2.0800E+02,     3.8900E-18,     3.8900E-18,     0.0000E+00
2.0810E+02,     3.8700E-18,     3.8700E-18,     0.0000E+00
2.0820E+02,     3.8500E-18,     3.8500E-18,     0.0000E+00
2.0830E+02,     3.8071E-18,     3.8071E-18,     0.0000E+00
2.0840E+02,     3.7700E-18,     3.7700E-18,     0.0000E+00
2.0850E+02,     3.7400E-18,     3.7400E-18,     0.0000E+00
2.0860E+02,     3.7171E-18,     3.7171E-18,     0.0000E+00
2.0870E+02,     3.6843E-18,     3.6843E-18,     0.0000E+00
2.0880E+02,     3.6500E-18,     3.6500E-18,     0.0000E+00
2.0890E+02,     3.6100E-18,     3.6100E-18,     0.0000E+00
2.0900E+02,     3.5900E-18,     3.5900E-18,     0.0000E+00
2.0910E+02,     3.5700E-18,     3.5700E-18,     0.0000E+00
2.0920E+02,     3.5300E-18,     3.5300E-18,     0.0000E+00
2.0930E+02,     3.4900E-18,     3.4900E-18,     0.0000E+00
2.0940E+02,     3.4700E-18,     3.4700E-18,     0.0000E+00
2.0950E+02,     3.4500E-18,     3.4500E-18,     0.0000E+00
2.0960E+02,     3.4029E-18,     3.4029E-18,     0.0000E+00
2.0970E+02,     3.3700E-18,     3.3700E-18,     0.0000E+00
2.0980E+02,     3.3500E-18,     3.3500E-18,     0.0000E+00
2.0990E+02,     3.3229E-18,     3.3229E-18,     0.0000E+00
2.1000E+02,     3.2900E-18,     3.2900E-18,     0.0000E+00
2.1010E+02,     3.2700E-18,     3.2700E-18,     0.0000E+00
2.1020E+02,     3.2471E-18,     3.2471E-18,     0.0000E+00
2.1030E+02,     3.2300E-18,     3.2300E-18,     0.0000E+00
2.1040E+02,     3.2043E-18,     3.2043E-18,     0.0000E+00
2.1050E+02,     3.1613E-18,     3.1613E-18,     0.0000E+00
2.1060E+02,     3.1386E-18,     3.1386E-18,     0.0000E+00
2.1070E+02,     3.1200E-18,     3.1200E-18,     0.0000E+00
2.1080E+02,     3.0957E-18,     3.0957E-18,     0.0000E+00
2.1090E+02,     3.0629E-18,     3.0629E-18,     0.0000E+00
2.1100E+02,     3.0500E-18,     3.0500E-18,     0.0000E+00
2.1110E+02,     3.0300E-18,     3.0300E-18,     0.0000E+00
2.1120E+02,     2.9929E-18,     2.9929E-18,     0.0000E+00
2.1130E+02,     2.9714E-18,     2.9714E-18,     0.0000E+00
2.1140E+02,     2.9529E-18,     2.9529E-18,     0.0000E+00
2.1150E+02,     2.9300E-18,     2.9300E-18,     0.0000E+00
2.1160E+02,     2.8900E-18,     2.8900E-18,     0.0000E+00
2.1170E+02,     2.8771E-18,     2.8771E-18,     0.0000E+00
2.1180E+02,     2.8700E-18,     2.8700E-18,     0.0000E+00
2.1190E+02,     2.8357E-18,     2.8357E-18,     0.0000E+00
2.1200E+02,     2.8014E-18,     2.8014E-18,     0.0000E+00
2.1210E+02,     2.8000E-18,     2.8000E-18,     0.0000E+00
2.1220E+02,     2.7600E-18,     2.7600E-18,     0.0000E+00
2.1230E+02,     2.7400E-18,     2.7400E-18,     0.0000E+00
2.1240E+02,     2.7243E-18,     2.7243E-18,     0.0000E+00
2.1250E+02,     2.7100E-18,     2.7100E-18,     0.0000E+00
2.1260E+02,     2.6700E-18,     2.6700E-18,     0.0000E+00
2.1270E+02,     2.6586E-18,     2.6586E-18,     0.0000E+00
2.1280E+02,     2.6457E-18,     2.6457E-18,     0.0000E+00
2.1290E+02,     2.6057E-18,     2.6057E-18,     0.0000E+00
2.1300E+02,     2.5900E-18,     2.5900E-18,     0.0000E+00
2.1310E+02,     2.5800E-18,     2.5800E-18,     0.0000E+00
2.1320E+02,     2.5514E-18,     2.5514E-18,     0.0000E+00
2.1330E+02,     2.5271E-18,     2.5271E-18,     0.0000E+00
2.1340E+02,     2.5143E-18,     2.5143E-18,     0.0000E+00
2.1350E+02,     2.4900E-18,     2.4900E-18,     0.0000E+00
2.1360E+02,     2.4514E-18,     2.4514E-18,     0.0000E+00
2.1370E+02,     2.4586E-18,     2.4586E-18,     0.0000E+00
2.1380E+02,     2.4329E-18,     2.4329E-18,     0.0000E+00
2.1390E+02,     2.3957E-18,     2.3957E-18,     0.0000E+00
2.1400E+02,     2.3929E-18,     2.3929E-18,     0.0000E+00
2.1410E+02,     2.3700E-18,     2.3700E-18,     0.0000E+00
2.1420E+02,     2.3388E-18,     2.3388E-18,     0.0000E+00
2.1430E+02,     2.3400E-18,     2.3400E-18,     0.0000E+00
2.1440E+02,     2.3143E-18,     2.3143E-18,     0.0000E+00
2.1450E+02,     2.2829E-18,     2.2829E-18,     0.0000E+00
2.1460E+02,     2.2814E-18,     2.2814E-18,     0.0000E+00
2.1470E+02,     2.2500E-18,     2.2500E-18,     0.0000E+00
2.1480E+02,     2.2200E-18,     2.2200E-18,     0.0000E+00
2.1490E+02,     2.2257E-18,     2.2257E-18,     0.0000E+00
2.1500E+02,     2.1857E-18,     2.1857E-18,     0.0000E+00
2.1510E+02,     2.1814E-18,     2.1814E-18,     0.0000E+00
2.1520E+02,     2.1700E-18,     2.1700E-18,     0.0000E+00
2.1530E+02,     2.1400E-18,     2.1400E-18,     0.0000E+00
2.1540E+02,     2.1257E-18,     2.1257E-18,     0.0000E+00
2.1550E+02,     2.1100E-18,     2.1100E-18,     0.0000E+00
2.1560E+02,     2.0800E-18,     2.0800E-18,     0.0000E+00
2.1570E+02,     2.0800E-18,     2.0800E-18,     0.0000E+00
2.1580E+02,     2.0614E-18,     2.0614E-18,     0.0000E+00
2.1590E+02,     2.0363E-18,     2.0363E-18,     0.0000E+00
2.1600E+02,     2.0400E-18,     2.0400E-18,     0.0000E+00
2.1610E+02,     2.0100E-18,     2.0100E-18,     0.0000E+00
2.1620E+02,     2.0000E-18,     2.0000E-18,     0.0000E+00
2.1630E+02,     1.9900E-18,     1.9900E-18,     0.0000E+00
2.1640E+02,     1.9600E-18,     1.9600E-18,     0.0000E+00
2.1650E+02,     1.9643E-18,     1.9643E-18,     0.0000E+00
2.1660E+02,     1.9300E-18,     1.9300E-18,     0.0000E+00
2.1670E+02,     1.9214E-18,     1.9214E-18,     0.0000E+00
2.1680E+02,     1.9200E-18,     1.9200E-18,     0.0000E+00
2.1690E+02,     1.8900E-18,     1.8900E-18,     0.0000E+00
2.1700E+02,     1.8900E-18,     1.8900E-18,     0.0000E+00
2.1710E+02,     1.8671E-18,     1.8671E-18,     0.0000E+00
2.1720E+02,     1.8514E-18,     1.8514E-18,     0.0000E+00
2.1730E+02,     1.8400E-18,     1.8400E-18,     0.0000E+00
2.1740E+02,     1.8100E-18,     1.8100E-18,     0.0000E+00
2.1750E+02,     1.8214E-18,     1.8214E-18,     0.0000E+00
2.1760E+02,     1.7862E-18,     1.7862E-18,     0.0000E+00
2.1770E+02,     1.7800E-18,     1.7800E-18,     0.0000E+00
2.1780E+02,     1.7700E-18,     1.7700E-18,     0.0000E+00
2.1790E+02,     1.7371E-18,     1.7371E-18,     0.0000E+00
2.1800E+02,     1.7400E-18,     1.7400E-18,     0.0000E+00
2.1810E+02,     1.7000E-18,     1.7000E-18,     0.0000E+00
2.1820E+02,     1.7014E-18,     1.7014E-18,     0.0000E+00
2.1830E+02,     1.6800E-18,     1.6800E-18,     0.0000E+00
2.1840E+02,     1.6686E-18,     1.6686E-18,     0.0000E+00
2.1850E+02,     1.6600E-18,     1.6600E-18,     0.0000E+00
2.1860E+02,     1.6243E-18,     1.6243E-18,     0.0000E+00
2.1870E+02,     1.6329E-18,     1.6329E-18,     0.0000E+00
2.1880E+02,     1.5900E-18,     1.5900E-18,     0.0000E+00
2.1890E+02,     1.6000E-18,     1.6000E-18,     0.0000E+00
2.1900E+02,     1.5700E-18,     1.5700E-18,     0.0000E+00
2.1910E+02,     1.5586E-18,     1.5586E-18,     0.0000E+00
2.1920E+02,     1.5600E-18,     1.5600E-18,     0.0000E+00
2.1930E+02,     1.5300E-18,     1.5300E-18,     0.0000E+00
2.1940E+02,     1.5386E-18,     1.5386E-18,     0.0000E+00
2.1950E+02,     1.4971E-18,     1.4971E-18,     0.0000E+00
2.1960E+02,     1.5000E-18,     1.5000E-18,     0.0000E+00
2.1970E+02,     1.4700E-18,     1.4700E-18,     0.0000E+00
2.1980E+02,     1.4714E-18,     1.4714E-18,     0.0000E+00
2.1990E+02,     1.4514E-18,     1.4514E-18,     0.0000E+00
2.2000E+02,     1.4371E-18,     1.4371E-18,     0.0000E+00
2.2010E+02,     1.4300E-18,     1.4300E-18,     0.0000E+00
2.2020E+02,     1.4100E-18,     1.4100E-18,     0.0000E+00
2.2030E+02,     1.4100E-18,     1.4100E-18,     0.0000E+00
2.2040E+02,     1.3700E-18,     1.3700E-18,     0.0000E+00
2.2050E+02,     1.3871E-18,     1.3871E-18,     0.0000E+00
2.2060E+02,     1.3500E-18,     1.3500E-18,     0.0000E+00
2.2070E+02,     1.3600E-18,     1.3600E-18,     0.0000E+00
2.2080E+02,     1.3286E-18,     1.3286E-18,     0.0000E+00
2.2090E+02,     1.3300E-18,     1.3300E-18,     0.0000E+00
2.2100E+02,     1.3014E-18,     1.3014E-18,     0.0000E+00
2.2110E+02,     1.3000E-18,     1.3000E-18,     0.0000E+00
2.2120E+02,     1.2857E-18,     1.2857E-18,     0.0000E+00
2.2130E+02,     1.2714E-18,     1.2714E-18,     0.0000E+00
2.2140E+02,     1.2600E-18,     1.2600E-18,     0.0000E+00
2.2150E+02,     1.2400E-18,     1.2400E-18,     0.0000E+00
2.2160E+02,     1.2343E-18,     1.2343E-18,     0.0000E+00
2.2170E+02,     1.2143E-18,     1.2143E-18,     0.0000E+00
2.2180E+02,     1.2171E-18,     1.2171E-18,     0.0000E+00
2.2190E+02,     1.1900E-18,     1.1900E-18,     0.0000E+00
2.2200E+02,     1.1900E-18,     1.1900E-18,     0.0000E+00
2.2210E+02,     1.1671E-18,     1.1671E-18,     0.0000E+00
2.2220E+02,     1.1757E-18,     1.1757E-18,     0.0000E+00
2.2230E+02,     1.1429E-18,     1.1429E-18,     0.0000E+00
2.2240E+02,     1.1586E-18,     1.1586E-18,     0.0000E+00
2.2250E+02,     1.1200E-18,     1.1200E-18,     0.0000E+00
2.2260E+02,     1.1329E-18,     1.1329E-18,     0.0000E+00
2.2270E+02,     1.0900E-18,     1.0900E-18,     0.0000E+00
2.2280E+02,     1.1071E-18,     1.1071E-18,     0.0000E+00
2.2290E+02,     1.0800E-18,     1.0800E-18,     0.0000E+00
2.2300E+02,     1.0888E-18,     1.0888E-18,     0.0000E+00
2.2310E+02,     1.0500E-18,     1.0500E-18,     0.0000E+00
2.2320E+02,     1.0700E-18,     1.0700E-18,     0.0000E+00
2.2330E+02,     1.0329E-18,     1.0329E-18,     0.0000E+00
2.2340E+02,     1.0400E-18,     1.0400E-18,     0.0000E+00
2.2350E+02,     1.0100E-18,     1.0100E-18,     0.0000E+00
2.2360E+02,     1.0229E-18,     1.0229E-18,     0.0000E+00
2.2370E+02,     9.8600E-19,     9.8600E-19,     0.0000E+00
2.2380E+02,     9.9871E-19,     9.9871E-19,     0.0000E+00
2.2390E+02,     9.7300E-19,     9.7300E-19,     0.0000E+00
2.2400E+02,     9.7900E-19,     9.7900E-19,     0.0000E+00
2.2410E+02,     9.5743E-19,     9.5743E-19,     0.0000E+00
2.2420E+02,     9.5343E-19,     9.5343E-19,     0.0000E+00
2.2430E+02,     9.3743E-19,     9.3743E-19,     0.0000E+00
2.2440E+02,     9.3129E-19,     9.3129E-19,     0.0000E+00
2.2450E+02,     9.2300E-19,     9.2300E-19,     0.0000E+00
2.2460E+02,     9.0571E-19,     9.0571E-19,     0.0000E+00
2.2470E+02,     9.0700E-19,     9.0700E-19,     0.0000E+00
2.2480E+02,     8.8229E-19,     8.8229E-19,     0.0000E+00
2.2490E+02,     8.9571E-19,     8.9571E-19,     0.0000E+00
2.2500E+02,     8.6600E-19,     8.6600E-19,     0.0000E+00
2.2510E+02,     8.7314E-19,     8.7314E-19,     0.0000E+00
2.2520E+02,     8.4114E-19,     8.4114E-19,     0.0000E+00
2.2530E+02,     8.5729E-19,     8.5729E-19,     0.0000E+00
2.2540E+02,     8.2414E-19,     8.2414E-19,     0.0000E+00
2.2550E+02,     8.3286E-19,     8.3286E-19,     0.0000E+00
2.2560E+02,     8.1186E-19,     8.1186E-19,     0.0000E+00
2.2570E+02,     8.0271E-19,     8.0271E-19,     0.0000E+00
2.2580E+02,     8.1457E-19,     8.1457E-19,     0.0000E+00
2.2590E+02,     7.9314E-19,     7.9314E-19,     0.0000E+00
2.2600E+02,     8.0143E-19,     8.0143E-19,     0.0000E+00
2.2610E+02,     7.5900E-19,     7.5900E-19,     0.0000E+00
2.2620E+02,     7.7643E-19,     7.7643E-19,     0.0000E+00
2.2630E+02,     7.4857E-19,     7.4857E-19,     0.0000E+00
2.2640E+02,     7.5912E-19,     7.5912E-19,     0.0000E+00
2.2650E+02,     7.4286E-19,     7.4286E-19,     0.0000E+00
2.2660E+02,     7.4000E-19,     7.4000E-19,     0.0000E+00
2.2670E+02,     7.3757E-19,     7.3757E-19,     0.0000E+00
2.2680E+02,     7.1629E-19,     7.1629E-19,     0.0000E+00
2.2690E+02,     7.2657E-19,     7.2657E-19,     0.0000E+00
2.2700E+02,     6.9957E-19,     6.9957E-19,     0.0000E+00
2.2710E+02,     7.1400E-19,     7.1400E-19,     0.0000E+00
2.2720E+02,     6.9557E-19,     6.9557E-19,     0.0000E+00
2.2730E+02,     6.8857E-19,     6.8857E-19,     0.0000E+00
2.2740E+02,     6.9043E-19,     6.9043E-19,     0.0000E+00
2.2750E+02,     6.6943E-19,     6.6943E-19,     0.0000E+00
2.2760E+02,     6.8600E-19,     6.8600E-19,     0.0000E+00
2.2770E+02,     6.6014E-19,     6.6014E-19,     0.0000E+00
2.2780E+02,     6.5671E-19,     6.5671E-19,     0.0000E+00
2.2790E+02,     6.5414E-19,     6.5414E-19,     0.0000E+00
2.2800E+02,     6.3571E-19,     6.3571E-19,     0.0000E+00
2.2810E+02,     6.5225E-19,     6.5225E-19,     0.0000E+00
2.2820E+02,     6.2314E-19,     6.2314E-19,     0.0000E+00
2.2830E+02,     6.3414E-19,     6.3414E-19,     0.0000E+00
2.2840E+02,     6.2214E-19,     6.2214E-19,     0.0000E+00
2.2850E+02,     6.0214E-19,     6.0214E-19,     0.0000E+00
2.2860E+02,     6.1629E-19,     6.1629E-19,     0.0000E+00
2.2870E+02,     5.8643E-19,     5.8643E-19,     0.0000E+00
2.2880E+02,     5.8743E-19,     5.8743E-19,     0.0000E+00
2.2890E+02,     5.8286E-19,     5.8286E-19,     0.0000E+00
2.2900E+02,     5.7057E-19,     5.7057E-19,     0.0000E+00
2.2910E+02,     5.8200E-19,     5.8200E-19,     0.0000E+00
2.2920E+02,     5.4900E-19,     5.4900E-19,     0.0000E+00
2.2930E+02,     5.5471E-19,     5.5471E-19,     0.0000E+00
2.2940E+02,     5.5000E-19,     5.5000E-19,     0.0000E+00
2.2950E+02,     5.2800E-19,     5.2800E-19,     0.0000E+00
2.2960E+02,     5.4486E-19,     5.4486E-19,     0.0000E+00
2.2970E+02,     5.1800E-19,     5.1800E-19,     0.0000E+00
2.2980E+02,     5.2086E-19,     5.2086E-19,     0.0000E+00
2.2990E+02,     5.2329E-19,     5.2329E-19,     0.0000E+00
2.3000E+02,     4.9557E-19,     4.9557E-19,     0.0000E+00
2.3010E+02,     5.1700E-19,     5.1700E-19,     0.0000E+00
2.3020E+02,     4.9500E-19,     4.9500E-19,     0.0000E+00
2.3030E+02,     4.9557E-19,     4.9557E-19,     0.0000E+00
2.3040E+02,     5.0200E-19,     5.0200E-19,     0.0000E+00
2.3050E+02,     4.6614E-19,     4.6614E-19,     0.0000E+00
2.3060E+02,     4.7900E-19,     4.7900E-19,     0.0000E+00
2.3070E+02,     4.7400E-19,     4.7400E-19,     0.0000E+00
2.3080E+02,     4.4643E-19,     4.4643E-19,     0.0000E+00
2.3090E+02,     4.6643E-19,     4.6643E-19,     0.0000E+00
2.3100E+02,     4.5214E-19,     4.5214E-19,     0.0000E+00
2.3110E+02,     4.4600E-19,     4.4600E-19,     0.0000E+00
2.3120E+02,     4.5300E-19,     4.5300E-19,     0.0000E+00
2.3130E+02,     4.2529E-19,     4.2529E-19,     0.0000E+00
2.3140E+02,     4.3143E-19,     4.3143E-19,     0.0000E+00
2.3150E+02,     4.3657E-19,     4.3657E-19,     0.0000E+00
2.3160E+02,     4.0829E-19,     4.0829E-19,     0.0000E+00
2.3170E+02,     4.2686E-19,     4.2686E-19,     0.0000E+00
2.3180E+02,     4.1688E-19,     4.1688E-19,     0.0000E+00
2.3190E+02,     3.9114E-19,     3.9114E-19,     0.0000E+00
2.3200E+02,     4.1214E-19,     4.1214E-19,     0.0000E+00
2.3210E+02,     3.9029E-19,     3.9029E-19,     0.0000E+00
2.3220E+02,     3.8100E-19,     3.8100E-19,     0.0000E+00
2.3230E+02,     3.9600E-19,     3.9600E-19,     0.0000E+00
2.3240E+02,     3.7457E-19,     3.7457E-19,     0.0000E+00
2.3250E+02,     3.6814E-19,     3.6814E-19,     0.0000E+00
2.3260E+02,     3.8186E-19,     3.8186E-19,     0.0000E+00
2.3270E+02,     3.5886E-19,     3.5886E-19,     0.0000E+00
2.3280E+02,     3.6400E-19,     3.6400E-19,     0.0000E+00
2.3290E+02,     3.7086E-19,     3.7086E-19,     0.0000E+00
2.3300E+02,     3.4443E-19,     3.4443E-19,     0.0000E+00
2.3310E+02,     3.4900E-19,     3.4900E-19,     0.0000E+00
2.3320E+02,     3.5257E-19,     3.5257E-19,     0.0000E+00
2.3330E+02,     3.2800E-19,     3.2800E-19,     0.0000E+00
2.3340E+02,     3.3371E-19,     3.3371E-19,     0.0000E+00
2.3350E+02,     3.3488E-19,     3.3488E-19,     0.0000E+00
2.3360E+02,     3.1729E-19,     3.1729E-19,     0.0000E+00
2.3370E+02,     3.2657E-19,     3.2657E-19,     0.0000E+00
2.3380E+02,     3.3100E-19,     3.3100E-19,     0.0000E+00
2.3390E+02,     3.0057E-19,     3.0057E-19,     0.0000E+00
2.3400E+02,     3.0814E-19,     3.0814E-19,     0.0000E+00
2.3410E+02,     3.1586E-19,     3.1586E-19,     0.0000E+00
2.3420E+02,     2.9186E-19,     2.9186E-19,     0.0000E+00
2.3430E+02,     2.9929E-19,     2.9929E-19,     0.0000E+00
2.3440E+02,     3.0757E-19,     3.0757E-19,     0.0000E+00
2.3450E+02,     2.8186E-19,     2.8186E-19,     0.0000E+00
2.3460E+02,     2.8200E-19,     2.8200E-19,     0.0000E+00
2.3470E+02,     2.9543E-19,     2.9543E-19,     0.0000E+00
2.3480E+02,     2.6929E-19,     2.6929E-19,     0.0000E+00
2.3490E+02,     2.6900E-19,     2.6900E-19,     0.0000E+00
2.3500E+02,     2.8286E-19,     2.8286E-19,     0.0000E+00
2.3510E+02,     2.6500E-19,     2.6500E-19,     0.0000E+00
2.3520E+02,     2.5362E-19,     2.5362E-19,     0.0000E+00
2.3530E+02,     2.7086E-19,     2.7086E-19,     0.0000E+00
2.3540E+02,     2.6500E-19,     2.6500E-19,     0.0000E+00
2.3550E+02,     2.4257E-19,     2.4257E-19,     0.0000E+00
2.3560E+02,     2.5243E-19,     2.5243E-19,     0.0000E+00
2.3570E+02,     2.5186E-19,     2.5186E-19,     0.0000E+00
