# wavelength (nm) photoabsorption  photodissociation  photoionisation (cm^2)
120,	4.64E-18,	4.64E-18, 0.0
121,	7.03E-18,	7.03E-18, 0.0
122,	9.85E-18,	9.85E-18, 0.0
123,	1.28E-17,	1.28E-17, 0.0
124,	1.55E-17,	1.55E-17, 0.0
125,	1.76E-17,	1.76E-17, 0.0
126,	1.89E-17,	1.89E-17, 0.0
127,	1.93E-17,	1.93E-17, 0.0
128,	1.90E-17,	1.90E-17, 0.0
129,	1.81E-17,	1.81E-17, 0.0
130,	1.71E-17,	1.71E-17, 0.0
131,	1.62E-17,	1.62E-17, 0.0
132,	1.56E-17,	1.56E-17, 0.0
133,	1.55E-17,	1.55E-17, 0.0
134,	1.56E-17,	1.56E-17, 0.0
135,	1.59E-17,	1.59E-17, 0.0
136,	1.60E-17,	1.60E-17, 0.0
137,	1.59E-17,	1.59E-17, 0.0
138,	1.54E-17,	1.54E-17, 0.0
139,	1.46E-17,	1.46E-17, 0.0
140,	1.35E-17,	1.35E-17, 0.0
141,	1.22E-17,	1.22E-17, 0.0
142,	1.08E-17,	1.08E-17, 0.0
143,	9.39E-18,	9.39E-18, 0.0
144,	8.09E-18,	8.09E-18, 0.0
145,	6.92E-18,	6.92E-18, 0.0
146,	5.87E-18,	5.87E-18, 0.0
147,	4.95E-18,	4.95E-18, 0.0
148,	4.16E-18,	4.16E-18, 0.0
149,	3.48E-18,	3.48E-18, 0.0
150,	2.89E-18,	2.89E-18, 0.0
151,	2.40E-18,	2.40E-18, 0.0
152,	1.99E-18,	1.99E-18, 0.0
153,	1.66E-18,	1.66E-18, 0.0
154,	1.40E-18,	1.40E-18, 0.0
155,	1.21E-18,	1.21E-18, 0.0
156,	1.07E-18,	1.07E-18, 0.0
157,	9.68E-19,	9.68E-19, 0.0
158,	9.04E-19,	9.04E-19, 0.0
159,	8.64E-19,	8.64E-19, 0.0
160,	8.41E-19,	8.41E-19, 0.0
161,	8.30E-19,	8.30E-19, 0.0
162,	8.28E-19,	8.28E-19, 0.0
163,	8.36E-19,	8.36E-19, 0.0
164,	8.58E-19,	8.58E-19, 0.0
165,	8.98E-19,	8.98E-19, 0.0
166,	9.62E-19,	9.62E-19, 0.0
167,	1.06E-18,	1.06E-18, 0.0
168,	1.18E-18,	1.18E-18, 0.0
169,	1.34E-18,	1.34E-18, 0.0
170,	1.54E-18,	1.54E-18, 0.0
171,	1.77E-18,	1.77E-18, 0.0
172,	2.03E-18,	2.03E-18, 0.0
173,	2.30E-18,	2.30E-18, 0.0
174,	2.58E-18,	2.58E-18, 0.0
175,	2.85E-18,	2.85E-18, 0.0
176,	3.10E-18,	3.10E-18, 0.0
177,	3.32E-18,	3.32E-18, 0.0
178,	3.49E-18,	3.49E-18, 0.0
179,	3.62E-18,	3.62E-18, 0.0
180,	3.68E-18,	3.68E-18, 0.0
181,	3.68E-18,	3.68E-18, 0.0
182,	3.63E-18,	3.63E-18, 0.0
183,	3.51E-18,	3.51E-18, 0.0
184,	3.35E-18,	3.35E-18, 0.0
185,	3.15E-18,	3.15E-18, 0.0
186,	2.92E-18,	2.92E-18, 0.0
187,	2.66E-18,	2.66E-18, 0.0
188,	2.40E-18,	2.40E-18, 0.0
189,	2.13E-18,	2.13E-18, 0.0
190,	1.86E-18,	1.86E-18, 0.0
191,	1.61E-18,	1.61E-18, 0.0
192,	1.38E-18,	1.38E-18, 0.0
193,	1.17E-18,	1.17E-18, 0.0
194,	9.78E-19,	9.78E-19, 0.0
195,	8.13E-19,	8.13E-19, 0.0
196,	6.71E-19,	6.71E-19, 0.0
197,	5.52E-19,	5.52E-19, 0.0
198,	4.54E-19,	4.54E-19, 0.0
199,	3.75E-19,	3.75E-19, 0.0
200,	3.14E-19,	3.14E-19, 0.0
201,	2.69E-19,	2.69E-19, 0.0
202,	2.36E-19,	2.36E-19, 0.0
203,	2.14E-19,	2.14E-19, 0.0
204,	2.02E-19,	2.02E-19, 0.0
205,	1.98E-19,	1.98E-19, 0.0
206,	1.99E-19,	1.99E-19, 0.0
207,	2.06E-19,	2.06E-19, 0.0
208,	2.15E-19,	2.15E-19, 0.0
209,	2.28E-19,	2.28E-19, 0.0
210,	2.41E-19,	2.41E-19, 0.0
211,	2.55E-19,	2.55E-19, 0.0
212,	2.69E-19,	2.69E-19, 0.0
213,	2.82E-19,	2.82E-19, 0.0
214,	2.93E-19,	2.93E-19, 0.0
215,	3.03E-19,	3.03E-19, 0.0
216,	3.10E-19,	3.10E-19, 0.0
217,	3.15E-19,	3.15E-19, 0.0
218,	3.18E-19,	3.18E-19, 0.0
219,	3.18E-19,	3.18E-19, 0.0
220,	3.15E-19,	3.15E-19, 0.0
221,	3.10E-19,	3.10E-19, 0.0
222,	3.03E-19,	3.03E-19, 0.0
223,	2.93E-19,	2.93E-19, 0.0
224,	2.82E-19,	2.82E-19, 0.0
225,	2.69E-19,	2.69E-19, 0.0
226,	2.56E-19,	2.56E-19, 0.0
227,	2.41E-19,	2.41E-19, 0.0
228,	2.25E-19,	2.25E-19, 0.0
229,	2.09E-19,	2.09E-19, 0.0
230,	1.93E-19,	1.93E-19, 0.0
231,	1.77E-19,	1.77E-19, 0.0
232,	1.62E-19,	1.62E-19, 0.0
233,	1.47E-19,	1.47E-19, 0.0
234,	1.32E-19,	1.32E-19, 0.0
235,	1.19E-19,	1.19E-19, 0.0
236,	1.06E-19,	1.06E-19, 0.0
237,	9.41E-20,	9.41E-20, 0.0
238,	8.31E-20,	8.31E-20, 0.0
239,	7.30E-20,	7.30E-20, 0.0
240,	6.39E-20,	6.39E-20, 0.0
241,	5.56E-20,	5.56E-20, 0.0
242,	4.82E-20,	4.82E-20, 0.0
243,	4.16E-20,	4.16E-20, 0.0
244,	3.57E-20,	3.57E-20, 0.0
245,	3.06E-20,	3.06E-20, 0.0
246,	2.60E-20,	2.60E-20, 0.0
247,	2.21E-20,	2.21E-20, 0.0
248,	1.87E-20,	1.87E-20, 0.0
249,	1.57E-20,	1.57E-20, 0.0
250,	1.32E-20,	1.32E-20, 0.0
251,	1.11E-20,	1.11E-20, 0.0
252,	9.22E-21,	9.22E-21, 0.0
253,	7.66E-21,	7.66E-21, 0.0
254,	6.34E-21,	6.34E-21, 0.0
255,	5.24E-21,	5.24E-21, 0.0
256,	4.31E-21,	4.31E-21, 0.0
257,	3.54E-21,	3.54E-21, 0.0
258,	2.89E-21,	2.89E-21, 0.0
259,	2.36E-21,	2.36E-21, 0.0
260,	1.92E-21,	1.92E-21, 0.0
261,	1.56E-21,	1.56E-21, 0.0
262,	1.26E-21,	1.26E-21, 0.0
263,	1.02E-21,	1.02E-21, 0.0
264,	8.22E-22,	8.22E-22, 0.0
265,	6.61E-22,	6.61E-22, 0.0
266,	5.30E-22,	5.30E-22, 0.0
267,	4.24E-22,	4.24E-22, 0.0
268,	3.39E-22,	3.39E-22, 0.0
269,	2.70E-22,	2.70E-22, 0.0
270,	2.15E-22,	2.15E-22, 0.0
271,	1.71E-22,	1.71E-22, 0.0
272,	1.35E-22,	1.35E-22, 0.0
273,	1.07E-22,	1.07E-22, 0.0
274,	8.45E-23,	8.45E-23, 0.0
275,	6.66E-23,	6.66E-23, 0.0
276,	5.24E-23,	5.24E-23, 0.0
277,	4.12E-23,	4.12E-23, 0.0
278,	3.23E-23,	3.23E-23, 0.0
279,	2.53E-23,	2.53E-23, 0.0