486 .False.
#Refractive index of H2O[s] at -7 C; Warren (1984) Appl. Opt., Vol. 23:1206-1225
#
#
#Wavelength (micron) n  k
4.430000e-02	8.228000e-01	1.640000e-01
4.510000e-02	8.250000e-01	1.730000e-01
4.590000e-02	8.255000e-01	1.830000e-01
4.680000e-02	8.258000e-01	1.950000e-01
4.770000e-02	8.263000e-01	2.080000e-01
4.860000e-02	8.281000e-01	2.230000e-01
4.960000e-02	8.347000e-01	2.400000e-01
5.060000e-02	8.428000e-01	2.500000e-01
5.170000e-02	8.483000e-01	2.590000e-01
5.280000e-02	8.505000e-01	2.680000e-01
5.390000e-02	8.497000e-01	2.790000e-01
5.510000e-02	8.489000e-01	2.970000e-01
5.640000e-02	8.519000e-01	3.190000e-01
5.770000e-02	8.566000e-01	3.400000e-01
5.900000e-02	8.647000e-01	3.660000e-01
6.050000e-02	8.797000e-01	3.920000e-01
6.200000e-02	8.970000e-01	4.160000e-01
6.360000e-02	9.173000e-01	4.400000e-01
6.530000e-02	9.400000e-01	4.640000e-01
6.700000e-02	9.679000e-01	4.920000e-01
6.890000e-02	1.009300e+00	5.170000e-01
7.080000e-02	1.053600e+00	5.280000e-01
7.290000e-02	1.098600e+00	5.330000e-01
7.380000e-02	1.118300e+00	5.340000e-01
7.510000e-02	1.144900e+00	5.310000e-01
7.750000e-02	1.188500e+00	5.240000e-01
8.000000e-02	1.227300e+00	5.100000e-01
8.270000e-02	1.262900e+00	5.000000e-01
8.550000e-02	1.311700e+00	4.990000e-01
8.860000e-02	1.380700e+00	4.680000e-01
9.180000e-02	1.409100e+00	3.800000e-01
9.300000e-02	1.402800e+00	3.600000e-01
9.540000e-02	1.394800e+00	3.390000e-01
9.920000e-02	1.396400e+00	3.180000e-01
1.033000e-01	1.404700e+00	2.910000e-01
1.078000e-01	1.398100e+00	2.510000e-01
1.100000e-01	1.388600e+00	2.440000e-01
1.127000e-01	1.380600e+00	2.390000e-01
1.140000e-01	1.377200e+00	2.390000e-01
1.181000e-01	1.378300e+00	2.440000e-01
1.210000e-01	1.392900e+00	2.470000e-01
1.240000e-01	1.406100e+00	2.240000e-01
1.272000e-01	1.399900e+00	1.950000e-01
1.295000e-01	1.377700e+00	1.740000e-01
1.305000e-01	1.360700e+00	1.720000e-01
1.319000e-01	1.338900e+00	1.800000e-01
1.333000e-01	1.321000e+00	1.940000e-01
1.348000e-01	1.303000e+00	2.130000e-01
1.362000e-01	1.287100e+00	2.430000e-01
1.370000e-01	1.284900e+00	2.710000e-01
1.378000e-01	1.285100e+00	2.890000e-01
1.387000e-01	1.297000e+00	3.340000e-01
1.393000e-01	1.315100e+00	3.440000e-01
1.409000e-01	1.357500e+00	3.820000e-01
1.425000e-01	1.413000e+00	4.010000e-01
1.435000e-01	1.452500e+00	4.065000e-01
1.442000e-01	1.484500e+00	4.050000e-01
1.450000e-01	1.515700e+00	3.890000e-01
1.459000e-01	1.548400e+00	3.770000e-01
1.468000e-01	1.572900e+00	3.450000e-01
1.476000e-01	1.591500e+00	3.320000e-01
1.480000e-01	1.602100e+00	3.150000e-01
1.485000e-01	1.607700e+00	2.980000e-01
1.494000e-01	1.615600e+00	2.740000e-01
1.512000e-01	1.622000e+00	2.280000e-01
1.531000e-01	1.631100e+00	1.980000e-01
1.540000e-01	1.634500e+00	1.720000e-01
1.550000e-01	1.636300e+00	1.560000e-01
1.569000e-01	1.635300e+00	1.100000e-01
1.580000e-01	1.630900e+00	8.300000e-02
1.589000e-01	1.621400e+00	5.800000e-02
1.610000e-01	1.581800e+00	2.200000e-02
1.630000e-01	1.548200e+00	8.473000e-03
1.650000e-01	1.522500e+00	3.263000e-03
1.670000e-01	1.502700e+00	1.256000e-03
1.690000e-01	1.487000e+00	4.837000e-04
1.710000e-01	1.474300e+00	1.862000e-04
1.730000e-01	1.463500e+00	7.165000e-05
1.750000e-01	1.454300e+00	2.757000e-05
1.770000e-01	1.446200e+00	1.061000e-05
1.790000e-01	1.439000e+00	4.081000e-06
1.810000e-01	1.432600e+00	1.570000e-06
1.830000e-01	1.426800e+00	5.403000e-07
1.850000e-01	1.421500e+00	1.829000e-07
1.870000e-01	1.416700e+00	6.218000e-08
1.890000e-01	1.412200e+00	2.113000e-08
1.910000e-01	1.408100e+00	7.181000e-09
1.930000e-01	1.404300e+00	2.440000e-09
1.950000e-01	1.400700e+00	8.289000e-10
1.970000e-01	1.397400e+00	2.816000e-10
1.990000e-01	1.394300e+00	9.565000e-11
2.010000e-01	1.391400e+00	3.249000e-11
2.019000e-01	1.390100e+00	2.000000e-11
2.100000e-01	1.380100e+00	2.000000e-11
2.500000e-01	1.350900e+00	2.000000e-11
3.000000e-01	1.333900e+00	2.000000e-11
3.500000e-01	1.324900e+00	2.000000e-11
3.900000e-01	1.320300e+00	2.000000e-11
4.000000e-01	1.319400e+00	2.365000e-11
4.100000e-01	1.318500e+00	2.669000e-11
4.200000e-01	1.317700e+00	3.135000e-11
4.300000e-01	1.317000e+00	4.140000e-11
4.400000e-01	1.316300e+00	6.268000e-11
4.500000e-01	1.315700e+00	9.239000e-11
4.600000e-01	1.315100e+00	1.325000e-10
4.700000e-01	1.314500e+00	1.956000e-10
4.800000e-01	1.314000e+00	2.861000e-10
4.900000e-01	1.313500e+00	4.172000e-10
5.000000e-01	1.313000e+00	5.889000e-10
5.100000e-01	1.312600e+00	8.036000e-10
5.200000e-01	1.312100e+00	1.076000e-09
5.300000e-01	1.311700e+00	1.409000e-09
5.400000e-01	1.311400e+00	1.813000e-09
5.500000e-01	1.311000e+00	2.289000e-09
5.600000e-01	1.310600e+00	2.839000e-09
5.700000e-01	1.310300e+00	3.461000e-09
5.800000e-01	1.310000e+00	4.159000e-09
5.900000e-01	1.309700e+00	4.930000e-09
6.000000e-01	1.309400e+00	5.730000e-09
6.100000e-01	1.309100e+00	6.890000e-09
6.200000e-01	1.308800e+00	8.580000e-09
6.300000e-01	1.308500e+00	1.040000e-08
6.400000e-01	1.308300e+00	1.220000e-08
6.500000e-01	1.308000e+00	1.430000e-08
6.600000e-01	1.307800e+00	1.660000e-08
6.700000e-01	1.307600e+00	1.890000e-08
6.800000e-01	1.307300e+00	2.090000e-08
6.900000e-01	1.307100e+00	2.400000e-08
7.000000e-01	1.306900e+00	2.900000e-08
7.100000e-01	1.306700e+00	3.440000e-08
7.200000e-01	1.306500e+00	4.030000e-08
7.300000e-01	1.306200e+00	4.300000e-08
7.400000e-01	1.306000e+00	4.920000e-08
7.500000e-01	1.305900e+00	5.870000e-08
7.600000e-01	1.305700e+00	7.080000e-08
7.700000e-01	1.305500e+00	8.580000e-08
7.800000e-01	1.305300e+00	1.020000e-07
7.900000e-01	1.305100e+00	1.180000e-07
8.000000e-01	1.304900e+00	1.340000e-07
8.100000e-01	1.304700e+00	1.400000e-07
8.200000e-01	1.304600e+00	1.430000e-07
8.300000e-01	1.304400e+00	1.450000e-07
8.400000e-01	1.304200e+00	1.510000e-07
8.500000e-01	1.304000e+00	1.830000e-07
8.600000e-01	1.303900e+00	2.150000e-07
8.700000e-01	1.303700e+00	2.650000e-07
8.800000e-01	1.303500e+00	3.350000e-07
8.900000e-01	1.303300e+00	3.920000e-07
9.000000e-01	1.303200e+00	4.200000e-07
9.100000e-01	1.303000e+00	4.440000e-07
9.200000e-01	1.302800e+00	4.740000e-07
9.300000e-01	1.302700e+00	5.110000e-07
9.400000e-01	1.302500e+00	5.530000e-07
9.500000e-01	1.302300e+00	6.020000e-07
9.600000e-01	1.302200e+00	7.550000e-07
9.700000e-01	1.302000e+00	9.260000e-07
9.800000e-01	1.301900e+00	1.120000e-06
9.900000e-01	1.301700e+00	1.330000e-06
1.000000e+00	1.301500e+00	1.620000e-06
1.010000e+00	1.301400e+00	2.000000e-06
1.020000e+00	1.301200e+00	2.250000e-06
1.030000e+00	1.301000e+00	2.330000e-06
1.040000e+00	1.300900e+00	2.330000e-06
1.050000e+00	1.300700e+00	2.170000e-06
1.060000e+00	1.300500e+00	1.960000e-06
1.070000e+00	1.300300e+00	1.810000e-06
1.080000e+00	1.300200e+00	1.740000e-06
1.090000e+00	1.300000e+00	1.730000e-06
1.100000e+00	1.299800e+00	1.700000e-06
1.110000e+00	1.299700e+00	1.760000e-06
1.120000e+00	1.299500e+00	1.820000e-06
1.130000e+00	1.299300e+00	2.040000e-06
1.140000e+00	1.299100e+00	2.250000e-06
1.150000e+00	1.299000e+00	2.290000e-06
1.160000e+00	1.298800e+00	3.040000e-06
1.170000e+00	1.298600e+00	3.840000e-06
1.180000e+00	1.298400e+00	4.770000e-06
1.190000e+00	1.298200e+00	5.760000e-06
1.200000e+00	1.298000e+00	6.710000e-06
1.210000e+00	1.297900e+00	8.660000e-06
1.220000e+00	1.297700e+00	1.020000e-05
1.230000e+00	1.297500e+00	1.130000e-05
1.240000e+00	1.297300e+00	1.220000e-05
1.250000e+00	1.297100e+00	1.290000e-05
1.260000e+00	1.296900e+00	1.320000e-05
1.270000e+00	1.296700e+00	1.350000e-05
1.280000e+00	1.296500e+00	1.330000e-05
1.290000e+00	1.296300e+00	1.320000e-05
1.300000e+00	1.296100e+00	1.320000e-05
1.310000e+00	1.295900e+00	1.310000e-05
1.320000e+00	1.295700e+00	1.320000e-05
1.330000e+00	1.295500e+00	1.320000e-05
1.340000e+00	1.295300e+00	1.340000e-05
1.350000e+00	1.295100e+00	1.390000e-05
1.360000e+00	1.294900e+00	1.420000e-05
1.370000e+00	1.294600e+00	1.480000e-05
1.380000e+00	1.294400e+00	1.580000e-05
1.390000e+00	1.294100e+00	1.740000e-05
1.400000e+00	1.293900e+00	1.980000e-05
1.410000e+00	1.293700e+00	3.442000e-05
1.420000e+00	1.293400e+00	5.959000e-05
1.430000e+00	1.293100e+00	1.028000e-04
1.440000e+00	1.292900e+00	1.516000e-04
1.449000e+00	1.292700e+00	2.030000e-04
1.460000e+00	1.292400e+00	2.942000e-04
1.471000e+00	1.292100e+00	3.987000e-04
1.481000e+00	1.292000e+00	4.941000e-04
1.493000e+00	1.291800e+00	5.532000e-04
1.504000e+00	1.291600e+00	5.373000e-04
1.515000e+00	1.291400e+00	5.143000e-04
1.527000e+00	1.291200e+00	4.908000e-04
1.538000e+00	1.290900e+00	4.594000e-04
1.563000e+00	1.290300e+00	3.858000e-04
1.587000e+00	1.289700e+00	3.105000e-04
1.613000e+00	1.289000e+00	2.659000e-04
1.650000e+00	1.287900e+00	2.361000e-04
1.680000e+00	1.287000e+00	2.046000e-04
1.700000e+00	1.286300e+00	1.875000e-04
1.730000e+00	1.285300e+00	1.650000e-04
1.760000e+00	1.284300e+00	1.522000e-04
1.800000e+00	1.282800e+00	1.411000e-04
1.830000e+00	1.281600e+00	1.302000e-04
1.840000e+00	1.281100e+00	1.310000e-04
1.850000e+00	1.280700e+00	1.339000e-04
1.855000e+00	1.280500e+00	1.377000e-04
1.860000e+00	1.280200e+00	1.432000e-04
1.870000e+00	1.279700e+00	1.632000e-04
1.890000e+00	1.278800e+00	2.566000e-04
1.905000e+00	1.278000e+00	4.081000e-04
1.923000e+00	1.277100e+00	7.060000e-04
1.942000e+00	1.276200e+00	1.108000e-03
1.961000e+00	1.275600e+00	1.442000e-03
1.980000e+00	1.275000e+00	1.614000e-03
2.000000e+00	1.274400e+00	1.640000e-03
2.020000e+00	1.273600e+00	1.566000e-03
2.041000e+00	1.272800e+00	1.458000e-03
2.062000e+00	1.271800e+00	1.267000e-03
2.083000e+00	1.270700e+00	1.023000e-03
2.105000e+00	1.269400e+00	7.586000e-04
2.130000e+00	1.267700e+00	5.255000e-04
2.150000e+00	1.266300e+00	4.025000e-04
2.170000e+00	1.264800e+00	3.235000e-04
2.190000e+00	1.263300e+00	2.707000e-04
2.220000e+00	1.260900e+00	2.228000e-04
2.240000e+00	1.259100e+00	2.037000e-04
2.245000e+00	1.258700e+00	2.026000e-04
2.250000e+00	1.258200e+00	2.035000e-04
2.260000e+00	1.257300e+00	2.078000e-04
2.270000e+00	1.256400e+00	2.171000e-04
2.290000e+00	1.254500e+00	2.538000e-04
2.310000e+00	1.252500e+00	3.138000e-04
2.330000e+00	1.250400e+00	3.858000e-04
2.350000e+00	1.248200e+00	4.591000e-04
2.370000e+00	1.245900e+00	5.187000e-04
2.390000e+00	1.243500e+00	5.605000e-04
2.410000e+00	1.240900e+00	5.956000e-04
2.430000e+00	1.238200e+00	6.259000e-04
2.460000e+00	1.233700e+00	6.820000e-04
2.500000e+00	1.227000e+00	7.530000e-04
2.520000e+00	1.223200e+00	7.685000e-04
2.550000e+00	1.216900e+00	7.647000e-04
2.565000e+00	1.213500e+00	7.473000e-04
2.580000e+00	1.209700e+00	7.392000e-04
2.590000e+00	1.207100e+00	7.437000e-04
2.600000e+00	1.204300e+00	7.543000e-04
2.620000e+00	1.198300e+00	8.059000e-04
2.675000e+00	1.177600e+00	1.367000e-03
2.725000e+00	1.150700e+00	3.508000e-03
2.778000e+00	1.108300e+00	1.346000e-02
2.817000e+00	1.065700e+00	3.245000e-02
2.833000e+00	1.045300e+00	4.572000e-02
2.849000e+00	1.023600e+00	6.287000e-02
2.865000e+00	1.000100e+00	8.548000e-02
2.882000e+00	9.747000e-01	1.198000e-01
2.899000e+00	9.563000e-01	1.690000e-01
2.915000e+00	9.538000e-01	2.210000e-01
2.933000e+00	9.678000e-01	2.760000e-01
2.950000e+00	9.873000e-01	3.120000e-01
2.967000e+00	1.002600e+00	3.470000e-01
2.985000e+00	1.018000e+00	3.880000e-01
3.003000e+00	1.039000e+00	4.380000e-01
3.021000e+00	1.072200e+00	4.930000e-01
3.040000e+00	1.125900e+00	5.540000e-01
3.058000e+00	1.208900e+00	6.120000e-01
3.077000e+00	1.321500e+00	6.250000e-01
3.096000e+00	1.422500e+00	5.930000e-01
3.115000e+00	1.493300e+00	5.390000e-01
3.135000e+00	1.547800e+00	4.910000e-01
3.155000e+00	1.597000e+00	4.380000e-01
3.175000e+00	1.633600e+00	3.720000e-01
3.195000e+00	1.647700e+00	3.000000e-01
3.215000e+00	1.640500e+00	2.380000e-01
3.236000e+00	1.624800e+00	1.930000e-01
3.257000e+00	1.610800e+00	1.580000e-01
3.279000e+00	1.590500e+00	1.210000e-01
3.300000e+00	1.571400e+00	1.030000e-01
3.322000e+00	1.555900e+00	8.360000e-02
3.345000e+00	1.539600e+00	6.680000e-02
3.367000e+00	1.524100e+00	5.312000e-02
3.390000e+00	1.508600e+00	4.286000e-02
3.413000e+00	1.494900e+00	3.523000e-02
3.436000e+00	1.482700e+00	2.887000e-02
3.460000e+00	1.471000e+00	2.347000e-02
3.484000e+00	1.460400e+00	1.921000e-02
3.509000e+00	1.450200e+00	1.586000e-02
3.534000e+00	1.441100e+00	1.326000e-02
3.559000e+00	1.432800e+00	1.130000e-02
3.624000e+00	1.414600e+00	8.146000e-03
3.732000e+00	1.392400e+00	6.672000e-03
3.775000e+00	1.385000e+00	6.966000e-03
3.847000e+00	1.375000e+00	8.248000e-03
3.969000e+00	1.362300e+00	1.112000e-02
4.099000e+00	1.352600e+00	1.471000e-02
4.239000e+00	1.344700e+00	1.867000e-02
4.348000e+00	1.340600e+00	2.411000e-02
4.387000e+00	1.340100e+00	2.656000e-02
4.444000e+00	1.341200e+00	2.990000e-02
4.505000e+00	1.344400e+00	3.179000e-02
4.547000e+00	1.347300e+00	3.090000e-02
4.560000e+00	1.348200e+00	3.007000e-02
4.580000e+00	1.349100e+00	2.883000e-02
4.719000e+00	1.347000e+00	1.940000e-02
4.904000e+00	1.337900e+00	1.347000e-02
5.000000e+00	1.332500e+00	1.240000e-02
5.100000e+00	1.326800e+00	1.220000e-02
5.200000e+00	1.321200e+00	1.302000e-02
5.263000e+00	1.317600e+00	1.380000e-02
5.400000e+00	1.310000e+00	1.683000e-02
5.556000e+00	1.301300e+00	2.232000e-02
5.714000e+00	1.293300e+00	3.256000e-02
5.747000e+00	1.291700e+00	3.539000e-02
5.780000e+00	1.290600e+00	3.883000e-02
5.814000e+00	1.290200e+00	4.270000e-02
5.848000e+00	1.290400e+00	4.643000e-02
5.882000e+00	1.291500e+00	5.045000e-02
6.061000e+00	1.301500e+00	6.439000e-02
6.135000e+00	1.308300e+00	6.560000e-02
6.250000e+00	1.315200e+00	6.360000e-02
6.289000e+00	1.316700e+00	6.265000e-02
6.329000e+00	1.317800e+00	6.170000e-02
6.369000e+00	1.318700e+00	6.101000e-02
6.410000e+00	1.319400e+00	6.031000e-02
6.452000e+00	1.320100e+00	5.964000e-02
6.494000e+00	1.320700e+00	5.899000e-02
6.579000e+00	1.321400e+00	5.780000e-02
6.667000e+00	1.321900e+00	5.700000e-02
6.757000e+00	1.322900e+00	5.680000e-02
6.897000e+00	1.324200e+00	5.428000e-02
7.042000e+00	1.324400e+00	5.161000e-02
7.143000e+00	1.323600e+00	4.940000e-02
7.246000e+00	1.322900e+00	4.840000e-02
7.353000e+00	1.321800e+00	4.600000e-02
7.463000e+00	1.320000e+00	4.440000e-02
7.576000e+00	1.318300e+00	4.290000e-02
7.692000e+00	1.315800e+00	4.041000e-02
7.812000e+00	1.312300e+00	3.911000e-02
7.937000e+00	1.308600e+00	3.819000e-02
8.065000e+00	1.304700e+00	3.760000e-02
8.197000e+00	1.300700e+00	3.724000e-02
8.333000e+00	1.296400e+00	3.700000e-02
8.475000e+00	1.291700e+00	3.677000e-02
8.696000e+00	1.283500e+00	3.654000e-02
8.929000e+00	1.273500e+00	3.664000e-02
9.091000e+00	1.265500e+00	3.706000e-02
9.259000e+00	1.256100e+00	3.789000e-02
9.524000e+00	1.238700e+00	4.026000e-02
9.804000e+00	1.215100e+00	4.450000e-02
1.000000e+01	1.192600e+00	5.008000e-02
1.020000e+01	1.165900e+00	6.461000e-02
1.031000e+01	1.150100e+00	7.500000e-02
1.042000e+01	1.132300e+00	8.800000e-02
1.053000e+01	1.113600e+00	1.080000e-01
1.064000e+01	1.097100e+00	1.340000e-01
1.075000e+01	1.086700e+00	1.680000e-01
1.087000e+01	1.083300e+00	2.040000e-01
1.100000e+01	1.088600e+00	2.480000e-01
1.111000e+01	1.102300e+00	2.800000e-01
1.136000e+01	1.143900e+00	3.410000e-01
1.163000e+01	1.198300e+00	3.790000e-01
1.190000e+01	1.254600e+00	4.090000e-01
1.220000e+01	1.319400e+00	4.220000e-01
1.250000e+01	1.382200e+00	4.220000e-01
1.282000e+01	1.441200e+00	4.030000e-01
1.299000e+01	1.468300e+00	3.890000e-01
1.316000e+01	1.492800e+00	3.740000e-01
1.333000e+01	1.513200e+00	3.540000e-01
1.351000e+01	1.530000e+00	3.350000e-01
1.370000e+01	1.545800e+00	3.150000e-01
1.389000e+01	1.559600e+00	2.940000e-01
1.408000e+01	1.570100e+00	2.710000e-01
1.429000e+01	1.577500e+00	2.460000e-01
1.471000e+01	1.576200e+00	1.980000e-01
1.515000e+01	1.563700e+00	1.640000e-01
1.538000e+01	1.555900e+00	1.520000e-01
1.563000e+01	1.548100e+00	1.420000e-01
1.613000e+01	1.535300e+00	1.280000e-01
1.639000e+01	1.530200e+00	1.250000e-01
1.667000e+01	1.529400e+00	1.230000e-01
1.695000e+01	1.530600e+00	1.160000e-01
1.724000e+01	1.530300e+00	1.070000e-01
1.818000e+01	1.514100e+00	7.900000e-02
1.832000e+01	1.510400e+00	7.752000e-02
1.861000e+01	1.504300e+00	7.455000e-02
1.887000e+01	1.498200e+00	7.200000e-02
1.923000e+01	1.493900e+00	7.600000e-02
1.961000e+01	1.496300e+00	7.500000e-02
2.000000e+01	1.498600e+00	6.700000e-02
2.041000e+01	1.495600e+00	5.500000e-02
2.083000e+01	1.487700e+00	4.500000e-02
2.222000e+01	1.457500e+00	2.900000e-02
2.260000e+01	1.448600e+00	2.750000e-02
2.305000e+01	1.439000e+00	2.700000e-02
2.360000e+01	1.428200e+00	2.730000e-02
2.460000e+01	1.410200e+00	2.890000e-02
2.500000e+01	1.403000e+00	3.000000e-02
2.600000e+01	1.385400e+00	3.400000e-02
2.857000e+01	1.340400e+00	5.122000e-02
3.100000e+01	1.296900e+00	8.615000e-02
3.333000e+01	1.264100e+00	1.348000e-01
3.448000e+01	1.253000e+00	1.615000e-01
3.564000e+01	1.244500e+00	1.895000e-01
3.700000e+01	1.237100e+00	2.227000e-01
3.824000e+01	1.231700e+00	2.528000e-01
3.960000e+01	1.224300e+00	2.853000e-01
4.114000e+01	1.205400e+00	3.240000e-01
4.276000e+01	1.174200e+00	3.945000e-01
4.358000e+01	1.154900e+00	4.521000e-01
4.458000e+01	1.149600e+00	5.535000e-01
4.550000e+01	1.185300e+00	6.782000e-01
4.615000e+01	1.254300e+00	7.684000e-01
4.671000e+01	1.347400e+00	8.254000e-01
4.736000e+01	1.472500e+00	8.458000e-01
4.800000e+01	1.587400e+00	8.158000e-01
4.878000e+01	1.684100e+00	7.414000e-01
5.003000e+01	1.750500e+00	6.191000e-01
5.128000e+01	1.764900e+00	5.353000e-01
5.275000e+01	1.766800e+00	4.780000e-01
5.350000e+01	1.768700e+00	4.599000e-01
5.424000e+01	1.779200e+00	4.468000e-01
5.500000e+01	1.795500e+00	4.214000e-01
5.574000e+01	1.805200e+00	3.860000e-01
5.640000e+01	1.804100e+00	3.508000e-01
5.700000e+01	1.794000e+00	3.196000e-01
5.746000e+01	1.780500e+00	2.981000e-01
5.840000e+01	1.741000e+00	2.659000e-01
5.929000e+01	1.693000e+00	2.569000e-01
6.000000e+01	1.661000e+00	2.785000e-01
6.100000e+01	1.641900e+00	3.076000e-01
6.125000e+01	1.639600e+00	3.146000e-01
6.250000e+01	1.637200e+00	3.471000e-01
6.378000e+01	1.647100e+00	3.748000e-01
6.467000e+01	1.659600e+00	3.902000e-01
6.558000e+01	1.675400e+00	4.024000e-01
6.655000e+01	1.694500e+00	4.115000e-01
6.760000e+01	1.716700e+00	4.167000e-01
6.900000e+01	1.746600e+00	4.167000e-01
7.053000e+01	1.778000e+00	4.089000e-01
7.300000e+01	1.818500e+00	3.830000e-01
7.500000e+01	1.841900e+00	3.543000e-01
7.629000e+01	1.850400e+00	3.340000e-01
8.000000e+01	1.861700e+00	2.944000e-01
8.297000e+01	1.866900e+00	2.679000e-01
8.500000e+01	1.868800e+00	2.519000e-01
8.680000e+01	1.869900e+00	2.390000e-01
9.080000e+01	1.869800e+00	2.140000e-01
9.517000e+01	1.868100e+00	1.913000e-01
1.000000e+02	1.865400e+00	1.706000e-01
1.200000e+02	1.849900e+00	1.151000e-01
1.600000e+02	1.826800e+00	6.684000e-02
2.100000e+02	1.811400e+00	4.282000e-02
3.000000e+02	1.798900e+00	2.549000e-02
5.000000e+02	1.790800e+00	1.405000e-02
1.300000e+03	1.786800e+00	5.173000e-03
5.000000e+03	1.786100e+00	1.337000e-03
1.900000e+04	1.786100e+00	3.574000e-04
3.900000e+04	1.786100e+00	1.839000e-04
6.100000e+04	1.786100e+00	1.294000e-04
8.600000e+04	1.786100e+00	1.058000e-04
1.100000e+05	1.786100e+00	9.675000e-05
1.400000e+05	1.786100e+00	9.360000e-05
1.800000e+05	1.786100e+00	9.613000e-05
2.400000e+05	1.786100e+00	1.066000e-04
3.400000e+05	1.786100e+00	1.312000e-04
5.400000e+05	1.786100e+00	1.895000e-04
1.000000e+06	1.786100e+00	3.348000e-04
2.000000e+06	1.786100e+00	6.596000e-04
