2001 .False. # Number of lines, conductive flag
# 5 line header for n-k original data
# Fosterite Mg2SiO4 (295.15 K) -  Suto et al. (2006) - (crystalline)
# Taken from: Courtesy ProDiMo team - Woitke et al. (2009)
# wl(um)      n                k
     0.100000       1.6115654      0.80391127
     0.100462       1.6173764      0.80135441
     0.100925       1.6231873      0.79879755
     0.101391       1.6289983      0.79624075
     0.101859       1.6348093      0.79368389
     0.102329       1.6406204      0.79112709
     0.102802       1.6464313      0.78857023
     0.103276       1.6518341      0.78563464
     0.103753       1.6565872      0.78209621
     0.104232       1.6613404      0.77855778
     0.104713       1.6660933      0.77501935
     0.105196       1.6708465      0.77148098
     0.105682       1.6755996      0.76794255
     0.106170       1.6803527      0.76440412
     0.106660       1.6851058      0.76086569
     0.107152       1.6898589      0.75732726
     0.107647       1.6946120      0.75378883
     0.108143       1.6993651      0.75025040
     0.108643       1.7041183      0.74671197
     0.109144       1.7088712      0.74317354
     0.109648       1.7136244      0.73963511
     0.110154       1.7183776      0.73609674
     0.110662       1.7231307      0.73255831
     0.111173       1.7278838      0.72901988
     0.111686       1.7326369      0.72548145
     0.112202       1.7373900      0.72194302
     0.112720       1.7402173      0.71813089
     0.113240       1.7406994      0.71398532
     0.113763       1.7411814      0.70983976
     0.114288       1.7416635      0.70569426
     0.114815       1.7421455      0.70154870
     0.115345       1.7426275      0.69740319
     0.115878       1.7431096      0.69325763
     0.116413       1.7435915      0.68911213
     0.116950       1.7440737      0.68496656
     0.117490       1.7445557      0.68082100
     0.118032       1.7450377      0.67667550
     0.118577       1.7455198      0.67252994
     0.119124       1.7460018      0.66838443
     0.119674       1.7464839      0.66423887
     0.120226       1.7469659      0.66009337
     0.120781       1.7474478      0.65594780
     0.121339       1.7479300      0.65180224
     0.121899       1.7484120      0.64765674
     0.122462       1.7488940      0.64351118
     0.123027       1.7493761      0.63936567
     0.123595       1.7498581      0.63522011
     0.124165       1.7500000      0.64739060
     0.124738       1.7500000      0.66636604
     0.125314       1.7574917      0.67824638
     0.125893       1.7712380      0.68420315
     0.126474       1.7832896      0.68750656
     0.127057       1.7923616      0.68614578
     0.127644       1.8007096      0.68500000
     0.128233       1.8051996      0.68500000
     0.128825       1.8096896      0.68500000
     0.129420       1.8182734      0.68458635
     0.130017       1.8271613      0.68414193
     0.130617       1.8359865      0.68310201
     0.131220       1.8447824      0.68178266
     0.131826       1.8535407      0.68064594
     0.132434       1.8622442      0.67977560
     0.133045       1.8704166      0.67887503
     0.133660       1.8742414      0.67772758
     0.134276       1.8780662      0.67658013
     0.134896       1.8842064      0.67515874
     0.135519       1.8927144      0.67345715
     0.136144       1.9012091      0.67163730
     0.136773       1.9096251      0.66911250
     0.137404       1.9180408      0.66658777
     0.138038       1.9295791      0.66376489
     0.138676       1.9420646      0.66085160
     0.139316       1.9529999      0.65735000
     0.139959       1.9612316      0.65282261
     0.140605       1.9694633      0.64829516
     0.141254       1.9814132      0.64267379
     0.141906       1.9936225      0.63697612
     0.142561       2.0038440      0.63130921
     0.143219       2.0118914      0.62567604
     0.143880       2.0199389      0.62004280
     0.144544       2.0318425      0.61249983
     0.145211       2.0437753      0.60494226
     0.145881       2.0537615      0.59498155
     0.146555       2.0616248      0.58240038
     0.147231       2.0694880      0.56981921
     0.147911       2.0772650      0.56173486
     0.148594       2.0850363      0.55396372
     0.149279       2.0927742      0.54400659
     0.149968       2.1004531      0.53018433
     0.150661       2.1081321      0.51636207
     0.151356       2.1157415      0.50381356
     0.152055       2.1233284      0.49167451
     0.152757       2.1304016      0.47955433
     0.153462       2.1337299      0.46757185
     0.154170       2.1370585      0.45558938
     0.154882       2.1400001      0.44345328
     0.155597       2.1400001      0.43014911
     0.156315       2.1400001      0.41684493
     0.157036       2.1400001      0.40375856
     0.157761       2.1400001      0.39098513
     0.158489       2.1400001      0.37821171
     0.159221       2.1448307      0.36627093
     0.159956       2.1520376      0.35473976
     0.160694       2.1592448      0.34320855
     0.161436       2.1536307      0.33403850
     0.162181       2.1465158      0.32514489
     0.162930       2.1400001      0.31578800
     0.163682       2.1400001      0.30139130
     0.164437       2.1400001      0.28699458
     0.165196       2.1400001      0.27501732
     0.165959       2.1400001      0.27085891
     0.166725       2.1400001      0.26670051
     0.167494       2.1388011      0.25728685
     0.168267       2.1353819      0.23813885
     0.169044       2.1319628      0.21899085
     0.169824       2.1271260      0.20541337
     0.170608       2.1203794      0.19934155
     0.171396       2.1136329      0.19326971
     0.172187       2.1084645      0.18800388
     0.172982       2.1051373      0.18367855
     0.173780       2.1018102      0.17935322
     0.174582       2.0985041      0.17056713
     0.175388       2.0952229      0.15645826
     0.176198       2.0919416      0.14234941
     0.177011       2.0873587      0.13241526
     0.177828       2.0808885      0.12853318
     0.178649       2.0744185      0.12465108
     0.179473       2.0682039      0.11857838
     0.180302       2.0625396      0.10778801
     0.181134       2.0568755     0.096997648
     0.181970       2.0512111     0.086207278
     0.182810       2.0450673     0.082000881
     0.183654       2.0387928     0.079585224
     0.184502       2.0325184     0.077169567
     0.185353       2.0262990     0.072591580
     0.186209       2.0201168     0.066563815
     0.187068       2.0139344     0.060536046
     0.187932       2.0066783     0.055194184
     0.188799       1.9975430     0.051052835
     0.189671       1.9884077     0.046911485
     0.190546       1.9795222     0.043066557
     0.191426       1.9735241     0.042646687
     0.192309       1.9675260     0.042226821
     0.193197       1.9615279     0.041806951
     0.194089       1.9577992     0.041700002
     0.194984       1.9548461     0.041700002
     0.195884       1.9518932     0.041700002
     0.196789       1.9489567     0.041418314
     0.197697       1.9460498     0.040633436
     0.198609       1.9431428     0.039848559
     0.199526       1.9402359     0.039063685
     0.200447       1.9373713     0.035530016
     0.201372       1.9345104     0.031753629
     0.202302       1.9316494     0.027977239
     0.203236       1.9276161     0.025895357
     0.204174       1.9219863     0.026120545
     0.205116       1.9163567     0.026345734
     0.206063       1.9107270     0.026570922
     0.207014       1.9051775     0.022293493
     0.207970       1.8996398     0.017348425
     0.208930       1.8941023     0.012403358
     0.209894       1.8892943    0.0088853752
     0.210863       1.8865716    0.0094462605
     0.211836       1.8838488     0.010007145
     0.212814       1.8811260     0.010568030
     0.213796       1.8784302    0.0091051515
     0.214783       1.8757536    0.0062149963
     0.215774       1.8730770    0.0033248411
     0.216770       1.8704003   0.00043468602
     0.217771       1.8677627   0.00035319020
     0.218776       1.8651321   0.00076554244
     0.219786       1.8625015    0.0011778947
     0.220800       1.8597746    0.0015917470
     0.221820       1.8551850    0.0020346497
     0.222844       1.8505954    0.0024775525
     0.223872       1.8460056    0.0029204553
     0.224905       1.8414160    0.0033633579
     0.225944       1.8382486    0.0028871158
     0.226986       1.8357159    0.0020007852
     0.228034       1.8331831    0.0011144546
     0.229087       1.8306503   0.00022812412
     0.230144       1.8281518   4.5160741e-07
     0.231206       1.8256650   3.1384306e-07
     0.232274       1.8231783   1.7607873e-07
     0.233346       1.8206916   5.0000000e-08
     0.234423       1.8182381   5.0000000e-08
     0.235505       1.8157974   5.0000000e-08
     0.236592       1.8133568   5.0000000e-08
     0.237684       1.8109161   5.0000000e-08
     0.238781       1.8085042   5.0000000e-08
     0.239883       1.8061095   5.0000000e-08
     0.240991       1.8037150   5.0000000e-08
     0.242103       1.8013204   5.0000000e-08
     0.243220       1.8000000   5.0000000e-08
     0.244343       1.8000000   5.0000000e-08
     0.245471       1.8000000   5.0000000e-08
     0.246604       1.8000000   5.0000000e-08
     0.247742       1.7995610   5.0000000e-08
     0.248886       1.7972584   5.0000000e-08
     0.250035       1.7949558   5.0000000e-08
     0.251189       1.7926534   5.0000000e-08
     0.252348       1.7903509   5.0000000e-08
     0.253513       1.7880874   5.0000000e-08
     0.254683       1.7858310   5.0000000e-08
     0.255859       1.7835745   5.0000000e-08
     0.257040       1.7813181   5.0000000e-08
     0.258226       1.7790807   5.0000000e-08
     0.259418       1.7768704   5.0000000e-08
     0.260615       1.6641154   5.0000000e-08
     0.261818       1.6641134   5.0000000e-08
     0.263027       1.6641114   5.0000000e-08
     0.264241       1.6641093   5.0000000e-08
     0.265461       1.6641073   5.0000000e-08
     0.266686       1.6641052   5.0000000e-08
     0.267917       1.6641031   5.0000000e-08
     0.269153       1.6641010   5.0000000e-08
     0.270396       1.6640988   5.0000000e-08
     0.271644       1.6640967   5.0000000e-08
     0.272898       1.6640945   5.0000000e-08
     0.274157       1.6640923   5.0000000e-08
     0.275423       1.6640901   5.0000000e-08
     0.276694       1.6640879   5.0000000e-08
     0.277971       1.6640856   5.0000000e-08
     0.279254       1.6640833   5.0000000e-08
     0.280543       1.6640810   5.0000000e-08
     0.281838       1.6640787   5.0000000e-08
     0.283139       1.6640764   5.0000000e-08
     0.284446       1.6640740   5.0000000e-08
     0.285759       1.6640716   5.0000000e-08
     0.287078       1.6640692   5.0000000e-08
     0.288403       1.6640668   5.0000000e-08
     0.289734       1.6640643   5.0000000e-08
     0.291072       1.6640618   5.0000000e-08
     0.292415       1.6640593   5.0000000e-08
     0.293765       1.6640568   5.0000000e-08
     0.295121       1.6640543   5.0000000e-08
     0.296483       1.6640517   5.0000000e-08
     0.297852       1.6640491   5.0000000e-08
     0.299226       1.6640465   5.0000000e-08
     0.300608       1.6640439   5.0000000e-08
     0.301995       1.6640412   5.0000000e-08
     0.303389       1.6640385   5.0000000e-08
     0.304790       1.6640358   5.0000000e-08
     0.306196       1.6640331   5.0000000e-08
     0.307610       1.6640303   5.0000000e-08
     0.309030       1.6640275   5.0000000e-08
     0.310456       1.6640247   5.0000000e-08
     0.311889       1.6640218   5.0000000e-08
     0.313329       1.6640190   5.0000000e-08
     0.314775       1.6640161   5.0000000e-08
     0.316228       1.6640132   5.0000000e-08
     0.317687       1.6640102   5.0000000e-08
     0.319154       1.6640072   5.1619137e-08
     0.320627       1.6640042   5.1619137e-08
     0.322107       1.6640012   5.1619137e-08
     0.323594       1.6639981   5.3726901e-08
     0.325087       1.6639950   5.3726901e-08
     0.326588       1.6639919   5.3726901e-08
     0.328095       1.6639888   5.5755040e-08
     0.329610       1.6639856   5.5755040e-08
     0.331131       1.6639824   5.7711949e-08
     0.332660       1.6639792   5.7711949e-08
     0.334195       1.6639759   5.9604645e-08
     0.335738       1.6639726   5.9604645e-08
     0.337287       1.6639693   5.9604645e-08
     0.338844       1.6639659   6.1439062e-08
     0.340408       1.6639625   6.1439062e-08
     0.341979       1.6639591   6.3220273e-08
     0.343558       1.6639557   6.3220273e-08
     0.345144       1.6639522   6.4952656e-08
     0.346737       1.6639487   6.4952656e-08
     0.348337       1.6639451   6.6640019e-08
     0.349945       1.6639416   6.6640019e-08
     0.351560       1.6639379   6.8285699e-08
     0.353183       1.6639343   6.8285699e-08
     0.354813       1.6639306   6.9892641e-08
     0.356451       1.6639269   7.1463459e-08
     0.358096       1.6639232   7.1463459e-08
     0.359749       1.6639194   7.3000483e-08
     0.361410       1.6639156   7.3000483e-08
     0.363078       1.6639117   7.4505806e-08
     0.364754       1.6639078   7.5981312e-08
     0.366438       1.6639039   7.7428705e-08
     0.368129       1.6638999   7.7428705e-08
     0.369828       1.6638959   7.8849534e-08
     0.371535       1.6638919   8.0245209e-08
     0.373250       1.6638878   8.1617021e-08
     0.374973       1.6638837   8.2966154e-08
     0.376704       1.6638796   8.2966154e-08
     0.378443       1.6638754   8.5600654e-08
     0.380189       1.6638711   8.5600654e-08
     0.381944       1.6638669   8.6887954e-08
     0.383707       1.6638626   8.8156458e-08
     0.385478       1.6638582   8.9406967e-08
     0.387258       1.6638538   9.0640225e-08
     0.389045       1.6638494   9.1856927e-08
     0.390841       1.6638449   9.4243218e-08
     0.392645       1.6638404   9.5413986e-08
     0.394457       1.6638359   9.5413986e-08
     0.396278       1.6638313   9.7713448e-08
     0.398107       1.6638267   9.8843121e-08
     0.399945       1.6638220   9.9960028e-08
     0.401791       1.6638173   1.0215721e-07
     0.403645       1.6638125   1.0323827e-07
     0.405509       1.6638077   1.0430813e-07
     0.407380       1.6638028   1.0536712e-07
     0.409261       1.6637979   1.0745380e-07
     0.411150       1.6637930   1.0950072e-07
     0.413047       1.6637880   1.1050997e-07
     0.414954       1.6637830   1.1151008e-07
     0.416869       1.6637779   1.1348386e-07
     0.418794       1.6637728   1.1542390e-07
     0.420727       1.6637676   1.1638179e-07
     0.422669       1.6637624   1.1827430e-07
     0.424620       1.6637571   1.2013700e-07
     0.426580       1.6637518   1.2105761e-07
     0.428549       1.6637464   1.2287812e-07
     0.430527       1.6637410   1.2555942e-07
     0.432514       1.6637355   1.2644055e-07
     0.434510       1.6637300   1.2818464e-07
     0.436516       1.6637244   1.3075716e-07
     0.438531       1.6637188   1.3244442e-07
     0.440555       1.6637131   1.3411045e-07
     0.442588       1.6637074   1.3575604e-07
     0.444631       1.6637016   1.3738192e-07
     0.446684       1.6636957   1.3978528e-07
     0.448745       1.6636898   1.4136483e-07
     0.450817       1.6636839   1.4370159e-07
     0.452898       1.6636779   1.4523855e-07
     0.454988       1.6636718   1.4751397e-07
     0.457088       1.6636657   1.4975482e-07
     0.459198       1.6636596   1.5196262e-07
     0.461318       1.6636533   1.5341684e-07
     0.463447       1.6636470   1.5628470e-07
     0.465586       1.6636407   1.5840152e-07
     0.467735       1.6636343   1.6049042e-07
     0.469894       1.6636278   1.6255248e-07
     0.472063       1.6636213   1.6526187e-07
     0.474242       1.6636147   1.6726512e-07
     0.476431       1.6636081   1.6924466e-07
     0.478630       1.6636014   1.7184857e-07
     0.480839       1.6635946   1.7441362e-07
     0.483059       1.6635878   1.7694149e-07
     0.485289       1.6635809   1.7881393e-07
     0.487529       1.6635739   1.8128045e-07
     0.489779       1.6635669   1.8431718e-07
     0.492040       1.6635598   1.8671101e-07
     0.494311       1.6635527   1.8966082e-07
     0.496592       1.6635455   1.9198803e-07
     0.498884       1.6635382   1.9485797e-07
     0.501187       1.6635308   1.9768624e-07
     0.503501       1.6635234   1.9992006e-07
     0.505825       1.6635159   2.0322474e-07
     0.508159       1.6635083   2.0593814e-07
     0.510505       1.6635007   2.0861626e-07
     0.512861       1.6634930   2.1178529e-07
     0.515229       1.6634852   2.1439038e-07
     0.517607       1.6634774   2.1747529e-07
     0.519996       1.6634695   2.2051705e-07
     0.522396       1.6634615   2.2351742e-07
     0.524807       1.6634534   2.2647804e-07
     0.527230       1.6634453   2.2988392e-07
     0.529663       1.6634371   2.3324007e-07
     0.532108       1.6634288   2.3607879e-07
     0.534564       1.6634204   2.3934809e-07
     0.537032       1.6634119   2.4303058e-07
     0.539511       1.6634034   2.4620759e-07
     0.542001       1.6633948   2.4978898e-07
     0.544503       1.6633861   2.5331974e-07
     0.547016       1.6633774   2.5680196e-07
     0.549541       1.6633685   2.6023759e-07
     0.552077       1.6633596   2.6404925e-07
     0.554626       1.6633506   2.6780666e-07
     0.557186       1.6633415   2.7151208e-07
     0.559758       1.6633323   2.7516760e-07
     0.562341       1.6633230   2.7917317e-07
     0.564937       1.6633137   2.8272965e-07
     0.567545       1.6633042   2.8662956e-07
     0.570164       1.6632947   2.9085906e-07
     0.572796       1.6632851   2.9502794e-07
     0.575440       1.6632754   2.9913872e-07
     0.578096       1.6632656   3.0319378e-07
     0.580764       1.6632557   3.0755650e-07
     0.583445       1.6632457   3.1185820e-07
     0.586138       1.6632357   3.1610136e-07
     0.588844       1.6632255   3.2063476e-07
     0.591562       1.6632153   3.2510496e-07
     0.594292       1.6632049   3.2951451e-07
     0.597035       1.6631945   3.3419820e-07
     0.599791       1.6631839   3.3881715e-07
     0.602560       1.6631733   3.4369715e-07
     0.605341       1.6631625   3.4819011e-07
     0.608135       1.6631517   3.5325496e-07
     0.610942       1.6631407   3.5793817e-07
     0.613762       1.6631297   3.6317282e-07
     0.616595       1.6631185   3.6803153e-07
     0.619441       1.6631073   3.7342203e-07
     0.622300       1.6630959   3.7844256e-07
     0.625173       1.6630845   3.8397606e-07
     0.628058       1.6630729   3.8914576e-07
     0.630957       1.6630612   3.9452917e-07
     0.633870       1.6630494   4.0011768e-07
     0.636796       1.6630375   4.0562921e-07
     0.639735       1.6630255   4.1133683e-07
     0.642688       1.6630134   4.1696634e-07
     0.645654       1.6630012   4.2278352e-07
     0.648634       1.6629888   4.2878075e-07
     0.651628       1.6629764   4.3469525e-07
     0.654636       1.6629638   4.4078229e-07
     0.657658       1.6629511   4.4703484e-07
     0.660693       1.6629383   4.5320112e-07
     0.663743       1.6629254   4.5952630e-07
     0.666807       1.6629123   4.6600389e-07
     0.669885       1.6628992   4.7239266e-07
     0.672977       1.6628859   4.7915981e-07
     0.676083       1.6628725   4.8583270e-07
     0.679204       1.6628589   4.9264059e-07
     0.682339       1.6628452   4.9935568e-07
     0.685488       1.6628315   5.0642030e-07
     0.688652       1.6628175   5.1360392e-07
     0.691831       1.6628035   5.2068845e-07
     0.695024       1.6627893   5.2809850e-07
     0.698232       1.6627750   5.3519860e-07
     0.701455       1.6627605   5.4281967e-07
     0.704693       1.6627460   5.5033521e-07
     0.707946       1.6627312   5.5814745e-07
     0.711214       1.6627164   5.6585185e-07
     0.714496       1.6627014   5.7383983e-07
     0.717794       1.6626862   5.8171813e-07
