4847 .False. # Number of lines, conductive flag
# 5 line header for n-k original data
# Refractive index of amporphous (sol-gel) Mg2SiO4[s]; Jäger et al. (2003), A&A Vol. 408; Database of Optical Constants for Cosmic Dust, Laboratory Astrophysics Group of the AIU Jena
# Data points: 4847
# Wavelength (micron) n  k
1.956945e-01	1.744770e+00	8.280000e-03
1.957349e-01	1.744370e+00	8.200000e-03
1.957753e-01	1.743970e+00	8.130000e-03
1.958157e-01	1.743570e+00	8.060000e-03
1.958561e-01	1.743180e+00	7.990000e-03
1.958966e-01	1.742790e+00	7.920000e-03
1.959370e-01	1.742410e+00	7.860000e-03
1.959775e-01	1.742020e+00	7.790000e-03
1.960180e-01	1.741640e+00	7.720000e-03
1.960585e-01	1.741260e+00	7.660000e-03
1.960991e-01	1.740900e+00	7.600000e-03
1.961396e-01	1.740530e+00	7.530000e-03
1.961802e-01	1.740160e+00	7.480000e-03
1.962208e-01	1.739800e+00	7.410000e-03
1.962614e-01	1.739440e+00	7.350000e-03
1.963020e-01	1.739080e+00	7.290000e-03
1.963426e-01	1.738730e+00	7.240000e-03
1.963833e-01	1.738380e+00	7.180000e-03
1.964239e-01	1.738030e+00	7.130000e-03
1.964646e-01	1.737690e+00	7.070000e-03
1.965053e-01	1.737350e+00	7.020000e-03
1.965460e-01	1.737010e+00	6.960000e-03
1.965868e-01	1.736670e+00	6.910000e-03
1.966275e-01	1.736350e+00	6.860000e-03
1.966683e-01	1.736010e+00	6.810000e-03
1.967091e-01	1.735690e+00	6.760000e-03
1.967499e-01	1.735360e+00	6.710000e-03
1.967907e-01	1.735040e+00	6.670000e-03
1.968315e-01	1.734720e+00	6.610000e-03
1.968724e-01	1.734400e+00	6.570000e-03
1.969133e-01	1.734090e+00	6.530000e-03
1.969541e-01	1.733770e+00	6.480000e-03
1.969950e-01	1.733470e+00	6.440000e-03
1.970360e-01	1.733170e+00	6.390000e-03
1.970769e-01	1.732860e+00	6.340000e-03
1.971179e-01	1.732550e+00	6.300000e-03
1.971588e-01	1.732250e+00	6.260000e-03
1.971998e-01	1.731960e+00	6.220000e-03
1.972408e-01	1.731660e+00	6.180000e-03
1.972819e-01	1.731370e+00	6.140000e-03
1.973229e-01	1.731080e+00	6.100000e-03
1.973640e-01	1.730790e+00	6.060000e-03
1.974050e-01	1.730500e+00	6.020000e-03
1.974461e-01	1.730210e+00	5.980000e-03
1.974872e-01	1.729930e+00	5.940000e-03
1.975284e-01	1.729650e+00	5.910000e-03
1.975695e-01	1.729370e+00	5.870000e-03
1.976107e-01	1.729080e+00	5.830000e-03
1.976518e-01	1.728810e+00	5.790000e-03
1.976930e-01	1.728540e+00	5.760000e-03
1.977342e-01	1.728270e+00	5.720000e-03
1.977755e-01	1.728000e+00	5.690000e-03
1.978167e-01	1.727730e+00	5.660000e-03
1.978580e-01	1.727460e+00	5.630000e-03
1.978993e-01	1.727200e+00	5.590000e-03
1.979406e-01	1.726930e+00	5.560000e-03
1.979819e-01	1.726670e+00	5.520000e-03
1.980232e-01	1.726410e+00	5.490000e-03
1.980646e-01	1.726160e+00	5.460000e-03
1.981059e-01	1.725900e+00	5.430000e-03
1.981473e-01	1.725650e+00	5.400000e-03
1.981887e-01	1.725390e+00	5.370000e-03
1.982301e-01	1.725140e+00	5.340000e-03
1.982716e-01	1.724890e+00	5.310000e-03
1.983130e-01	1.724650e+00	5.280000e-03
1.983545e-01	1.724400e+00	5.250000e-03
1.983960e-01	1.724150e+00	5.230000e-03
1.984375e-01	1.723910e+00	5.200000e-03
1.984790e-01	1.723660e+00	5.160000e-03
1.985205e-01	1.723430e+00	5.140000e-03
1.985621e-01	1.723180e+00	5.110000e-03
1.986037e-01	1.722940e+00	5.080000e-03
1.986453e-01	1.722710e+00	5.060000e-03
1.986869e-01	1.722470e+00	5.030000e-03
1.987285e-01	1.722240e+00	5.000000e-03
1.987701e-01	1.722010e+00	4.980000e-03
1.988118e-01	1.721780e+00	4.950000e-03
1.988535e-01	1.721550e+00	4.930000e-03
1.988952e-01	1.721320e+00	4.900000e-03
1.989369e-01	1.721090e+00	4.870000e-03
1.989786e-01	1.720870e+00	4.850000e-03
1.990204e-01	1.720640e+00	4.830000e-03
1.990622e-01	1.720420e+00	4.800000e-03
1.991039e-01	1.720200e+00	4.780000e-03
1.991457e-01	1.719980e+00	4.760000e-03
1.991876e-01	1.719760e+00	4.730000e-03
1.992294e-01	1.719550e+00	4.710000e-03
1.992713e-01	1.719330e+00	4.690000e-03
1.993131e-01	1.719110e+00	4.670000e-03
1.993550e-01	1.718890e+00	4.650000e-03
1.993969e-01	1.718680e+00	4.620000e-03
1.994388e-01	1.718470e+00	4.600000e-03
1.994808e-01	1.718260e+00	4.580000e-03
1.995227e-01	1.718050e+00	4.560000e-03
1.995647e-01	1.717840e+00	4.540000e-03
1.996067e-01	1.717630e+00	4.510000e-03
1.996487e-01	1.717420e+00	4.490000e-03
1.996908e-01	1.717220e+00	4.480000e-03
1.997328e-01	1.717010e+00	4.460000e-03
1.997749e-01	1.716810e+00	4.440000e-03
1.998170e-01	1.716610e+00	4.410000e-03
1.998591e-01	1.716410e+00	4.400000e-03
1.999012e-01	1.716210e+00	4.380000e-03
1.999433e-01	1.716000e+00	4.360000e-03
1.999855e-01	1.715810e+00	4.340000e-03
2.000277e-01	1.715610e+00	4.320000e-03
2.000698e-01	1.715410e+00	4.300000e-03
2.001121e-01	1.715220e+00	4.280000e-03
2.001543e-01	1.715020e+00	4.260000e-03
2.001965e-01	1.714830e+00	4.240000e-03
2.002388e-01	1.714640e+00	4.230000e-03
2.002811e-01	1.714450e+00	4.210000e-03
2.003234e-01	1.714250e+00	4.190000e-03
2.003657e-01	1.714070e+00	4.170000e-03
2.004080e-01	1.713880e+00	4.160000e-03
2.004504e-01	1.713690e+00	4.140000e-03
2.004927e-01	1.713500e+00	4.120000e-03
2.005351e-01	1.713310e+00	4.100000e-03
2.005775e-01	1.713130e+00	4.090000e-03
2.006200e-01	1.712940e+00	4.070000e-03
2.006624e-01	1.712760e+00	4.050000e-03
2.007049e-01	1.712570e+00	4.030000e-03
2.007473e-01	1.712390e+00	4.020000e-03
2.007898e-01	1.712210e+00	4.010000e-03
2.008323e-01	1.712030e+00	3.990000e-03
2.008749e-01	1.711850e+00	3.970000e-03
2.009174e-01	1.711670e+00	3.960000e-03
2.009600e-01	1.711500e+00	3.950000e-03
2.010026e-01	1.711320e+00	3.930000e-03
2.010452e-01	1.711150e+00	3.910000e-03
2.010878e-01	1.710970e+00	3.900000e-03
2.011304e-01	1.710790e+00	3.880000e-03
2.011731e-01	1.710620e+00	3.870000e-03
2.012158e-01	1.710440e+00	3.850000e-03
2.012585e-01	1.710270e+00	3.840000e-03
2.013012e-01	1.710100e+00	3.830000e-03
2.013439e-01	1.709930e+00	3.810000e-03
2.013867e-01	1.709760e+00	3.790000e-03
2.014294e-01	1.709590e+00	3.780000e-03
2.014722e-01	1.709420e+00	3.770000e-03
2.015150e-01	1.709250e+00	3.760000e-03
2.015578e-01	1.709080e+00	3.740000e-03
2.016007e-01	1.708910e+00	3.730000e-03
2.016435e-01	1.708750e+00	3.720000e-03
2.016864e-01	1.708590e+00	3.700000e-03
2.017293e-01	1.708420e+00	3.680000e-03
2.017722e-01	1.708260e+00	3.670000e-03
2.018151e-01	1.708090e+00	3.660000e-03
2.018581e-01	1.707930e+00	3.640000e-03
2.019011e-01	1.707770e+00	3.630000e-03
2.019440e-01	1.707600e+00	3.620000e-03
2.019870e-01	1.707440e+00	3.610000e-03
2.020301e-01	1.707290e+00	3.600000e-03
2.020731e-01	1.707130e+00	3.580000e-03
2.021162e-01	1.706970e+00	3.570000e-03
2.021592e-01	1.706810e+00	3.560000e-03
2.022023e-01	1.706650e+00	3.540000e-03
2.022454e-01	1.706490e+00	3.530000e-03
2.022886e-01	1.706340e+00	3.520000e-03
2.023317e-01	1.706180e+00	3.510000e-03
2.023749e-01	1.706020e+00	3.500000e-03
2.024181e-01	1.705870e+00	3.490000e-03
2.024613e-01	1.705720e+00	3.470000e-03
2.025045e-01	1.705570e+00	3.460000e-03
2.025478e-01	1.705410e+00	3.450000e-03
2.025910e-01	1.705260e+00	3.440000e-03
2.026343e-01	1.705100e+00	3.430000e-03
2.026776e-01	1.704960e+00	3.420000e-03
2.027209e-01	1.704810e+00	3.410000e-03
2.027642e-01	1.704660e+00	3.390000e-03
2.028076e-01	1.704510e+00	3.380000e-03
2.028510e-01	1.704360e+00	3.370000e-03
2.028944e-01	1.704210e+00	3.360000e-03
2.029378e-01	1.704060e+00	3.360000e-03
2.029812e-01	1.703910e+00	3.340000e-03
2.030246e-01	1.703760e+00	3.330000e-03
2.030681e-01	1.703620e+00	3.320000e-03
2.031116e-01	1.703470e+00	3.310000e-03
2.031551e-01	1.703330e+00	3.300000e-03
2.031986e-01	1.703180e+00	3.290000e-03
2.032422e-01	1.703040e+00	3.270000e-03
2.032857e-01	1.702900e+00	3.270000e-03
2.033293e-01	1.702760e+00	3.260000e-03
2.033729e-01	1.702610e+00	3.250000e-03
2.034165e-01	1.702470e+00	3.240000e-03
2.034601e-01	1.702330e+00	3.220000e-03
2.035038e-01	1.702190e+00	3.210000e-03
2.035475e-01	1.702050e+00	3.200000e-03
2.035911e-01	1.701910e+00	3.190000e-03
2.036349e-01	1.701770e+00	3.180000e-03
2.036786e-01	1.701630e+00	3.180000e-03
2.037223e-01	1.701490e+00	3.170000e-03
2.037661e-01	1.701350e+00	3.160000e-03
2.038099e-01	1.701210e+00	3.150000e-03
2.038537e-01	1.701080e+00	3.140000e-03
2.038975e-01	1.700940e+00	3.130000e-03
2.039413e-01	1.700810e+00	3.120000e-03
2.039852e-01	1.700670e+00	3.110000e-03
2.040291e-01	1.700540e+00	3.100000e-03
2.040730e-01	1.700400e+00	3.090000e-03
2.041169e-01	1.700260e+00	3.080000e-03
2.041608e-01	1.700130e+00	3.070000e-03
2.042048e-01	1.700000e+00	3.060000e-03
2.042487e-01	1.699870e+00	3.050000e-03
2.042927e-01	1.699730e+00	3.040000e-03
2.043367e-01	1.699600e+00	3.030000e-03
2.043808e-01	1.699470e+00	3.030000e-03
2.044248e-01	1.699340e+00	3.020000e-03
2.044689e-01	1.699210e+00	3.010000e-03
2.045130e-01	1.699080e+00	3.000000e-03
2.045571e-01	1.698940e+00	3.000000e-03
2.046012e-01	1.698820e+00	2.980000e-03
2.046453e-01	1.698690e+00	2.980000e-03
2.046895e-01	1.698560e+00	2.970000e-03
2.047337e-01	1.698430e+00	2.970000e-03
2.047779e-01	1.698300e+00	2.960000e-03
2.048221e-01	1.698180e+00	2.950000e-03
2.048663e-01	1.698050e+00	2.940000e-03
2.049106e-01	1.697920e+00	2.930000e-03
2.049549e-01	1.697800e+00	2.920000e-03
2.049992e-01	1.697670e+00	2.910000e-03
2.050435e-01	1.697540e+00	2.900000e-03
2.050878e-01	1.697420e+00	2.890000e-03
2.051322e-01	1.697300e+00	2.890000e-03
2.051765e-01	1.697170e+00	2.880000e-03
2.052209e-01	1.697050e+00	2.880000e-03
2.052653e-01	1.696930e+00	2.860000e-03
2.053098e-01	1.696790e+00	2.860000e-03
2.053542e-01	1.696680e+00	2.850000e-03
2.053987e-01	1.696560e+00	2.840000e-03
2.054432e-01	1.696430e+00	2.830000e-03
2.054877e-01	1.696310e+00	2.830000e-03
2.055322e-01	1.696190e+00	2.820000e-03
2.055768e-01	1.696070e+00	2.810000e-03
2.056213e-01	1.695940e+00	2.800000e-03
2.056659e-01	1.695830e+00	2.800000e-03
2.057105e-01	1.695710e+00	2.790000e-03
2.057551e-01	1.695580e+00	2.780000e-03
2.057998e-01	1.695470e+00	2.770000e-03
2.058444e-01	1.695350e+00	2.770000e-03
2.058891e-01	1.695230e+00	2.760000e-03
2.059338e-01	1.695110e+00	2.750000e-03
2.059785e-01	1.694990e+00	2.750000e-03
2.060233e-01	1.694880e+00	2.740000e-03
2.060680e-01	1.694760e+00	2.730000e-03
2.061128e-01	1.694650e+00	2.720000e-03
2.061576e-01	1.694530e+00	2.710000e-03
2.062024e-01	1.694410e+00	2.710000e-03
2.062473e-01	1.694290e+00	2.710000e-03
2.062921e-01	1.694180e+00	2.700000e-03
2.063370e-01	1.694070e+00	2.690000e-03
2.063819e-01	1.693950e+00	2.680000e-03
2.064268e-01	1.693840e+00	2.680000e-03
2.064717e-01	1.693720e+00	2.670000e-03
2.065167e-01	1.693610e+00	2.660000e-03
2.065617e-01	1.693500e+00	2.660000e-03
2.066067e-01	1.693380e+00	2.650000e-03
2.066517e-01	1.693270e+00	2.650000e-03
2.066967e-01	1.693150e+00	2.640000e-03
2.067418e-01	1.693040e+00	2.630000e-03
2.067868e-01	1.692930e+00	2.620000e-03
2.068319e-01	1.692820e+00	2.620000e-03
2.068770e-01	1.692710e+00	2.610000e-03
2.069222e-01	1.692600e+00	2.600000e-03
2.069673e-01	1.692490e+00	2.600000e-03
2.070125e-01	1.692370e+00	2.590000e-03
2.070577e-01	1.692260e+00	2.590000e-03
2.071029e-01	1.692160e+00	2.580000e-03
2.071481e-01	1.692050e+00	2.570000e-03
2.071933e-01	1.691940e+00	2.570000e-03
2.072386e-01	1.691830e+00	2.560000e-03
2.072839e-01	1.691720e+00	2.550000e-03
2.073292e-01	1.691610e+00	2.550000e-03
2.073745e-01	1.691500e+00	2.550000e-03
2.074199e-01	1.691400e+00	2.540000e-03
2.074653e-01	1.691290e+00	2.530000e-03
2.075106e-01	1.691180e+00	2.520000e-03
2.075561e-01	1.691070e+00	2.520000e-03
2.076015e-01	1.690970e+00	2.510000e-03
2.076469e-01	1.690860e+00	2.500000e-03
2.076924e-01	1.690750e+00	2.500000e-03
2.077379e-01	1.690650e+00	2.500000e-03
2.077834e-01	1.690540e+00	2.490000e-03
2.078289e-01	1.690440e+00	2.480000e-03
2.078745e-01	1.690330e+00	2.480000e-03
2.079200e-01	1.690230e+00	2.470000e-03
2.079656e-01	1.690120e+00	2.460000e-03
2.080112e-01	1.690020e+00	2.460000e-03
2.080568e-01	1.689920e+00	2.460000e-03
2.081025e-01	1.689820e+00	2.450000e-03
2.081482e-01	1.689710e+00	2.440000e-03
2.081938e-01	1.689610e+00	2.440000e-03
2.082396e-01	1.689500e+00	2.430000e-03
2.082853e-01	1.689400e+00	2.430000e-03
2.083310e-01	1.689300e+00	2.420000e-03
2.083768e-01	1.689200e+00	2.410000e-03
2.084226e-01	1.689100e+00	2.410000e-03
2.084684e-01	1.688990e+00	2.410000e-03
2.085142e-01	1.688890e+00	2.400000e-03
2.085601e-01	1.688790e+00	2.400000e-03
2.086059e-01	1.688700e+00	2.390000e-03
2.086518e-01	1.688590e+00	2.380000e-03
2.086977e-01	1.688490e+00	2.380000e-03
2.087437e-01	1.688390e+00	2.370000e-03
2.087896e-01	1.688290e+00	2.360000e-03
2.088356e-01	1.688190e+00	2.360000e-03
2.088816e-01	1.688100e+00	2.360000e-03
2.089276e-01	1.688000e+00	2.350000e-03
2.089736e-01	1.687890e+00	2.350000e-03
2.090196e-01	1.687800e+00	2.340000e-03
2.090657e-01	1.687700e+00	2.330000e-03
2.091118e-01	1.687600e+00	2.330000e-03
2.091579e-01	1.687510e+00	2.320000e-03
2.092040e-01	1.687410e+00	2.320000e-03
2.092502e-01	1.687310e+00	2.320000e-03
2.092964e-01	1.687210e+00	2.310000e-03
2.093426e-01	1.687110e+00	2.310000e-03
2.093888e-01	1.687010e+00	2.300000e-03
2.094350e-01	1.686920e+00	2.290000e-03
2.094813e-01	1.686820e+00	2.290000e-03
2.095275e-01	1.686720e+00	2.280000e-03
2.095738e-01	1.686630e+00	2.280000e-03
2.096201e-01	1.686540e+00	2.280000e-03
2.096665e-01	1.686440e+00	2.270000e-03
2.097128e-01	1.686350e+00	2.270000e-03
2.097592e-01	1.686250e+00	2.260000e-03
2.098056e-01	1.686160e+00	2.260000e-03
2.098520e-01	1.686070e+00	2.250000e-03
2.098985e-01	1.685970e+00	2.250000e-03
2.099449e-01	1.685880e+00	2.250000e-03
2.099914e-01	1.685780e+00	2.240000e-03
2.100379e-01	1.685690e+00	2.230000e-03
2.100844e-01	1.685600e+00	2.230000e-03
2.101310e-01	1.685500e+00	2.220000e-03
2.101775e-01	1.685410e+00	2.220000e-03
2.102241e-01	1.685320e+00	2.210000e-03
2.102707e-01	1.685230e+00	2.210000e-03
2.103173e-01	1.685140e+00	2.200000e-03
2.103640e-01	1.685050e+00	2.200000e-03
2.104106e-01	1.684950e+00	2.200000e-03
2.104573e-01	1.684860e+00	2.190000e-03
2.105040e-01	1.684770e+00	2.190000e-03
2.105508e-01	1.684680e+00	2.180000e-03
2.105975e-01	1.684590e+00	2.180000e-03
2.106443e-01	1.684500e+00	2.170000e-03
2.106911e-01	1.684400e+00	2.170000e-03
2.107379e-01	1.684320e+00	2.170000e-03
2.107847e-01	1.684230e+00	2.160000e-03
2.108316e-01	1.684130e+00	2.160000e-03
2.108784e-01	1.684040e+00	2.150000e-03
2.109253e-01	1.683960e+00	2.150000e-03
2.109722e-01	1.683870e+00	2.140000e-03
2.110192e-01	1.683780e+00	2.140000e-03
2.110661e-01	1.683690e+00	2.130000e-03
2.111131e-01	1.683600e+00	2.130000e-03
2.111601e-01	1.683520e+00	2.130000e-03
2.112071e-01	1.683430e+00	2.120000e-03
2.112542e-01	1.683340e+00	2.120000e-03
2.113012e-01	1.683250e+00	2.110000e-03
2.113483e-01	1.683170e+00	2.110000e-03
2.113954e-01	1.683080e+00	2.100000e-03
2.114425e-01	1.682990e+00	2.100000e-03
2.114897e-01	1.682900e+00	2.100000e-03
2.115368e-01	1.682810e+00	2.090000e-03
2.115840e-01	1.682730e+00	2.090000e-03
2.116312e-01	1.682640e+00	2.080000e-03
2.116785e-01	1.682550e+00	2.080000e-03
2.117257e-01	1.682460e+00	2.070000e-03
2.117730e-01	1.682380e+00	2.070000e-03
2.118203e-01	1.682300e+00	2.070000e-03
2.118676e-01	1.682210e+00	2.060000e-03
2.119149e-01	1.682120e+00	2.060000e-03
2.119623e-01	1.682040e+00	2.060000e-03
2.120096e-01	1.681960e+00	2.050000e-03
2.120570e-01	1.681870e+00	2.050000e-03
2.121045e-01	1.681790e+00	2.040000e-03
2.121519e-01	1.681700e+00	2.040000e-03
2.121994e-01	1.681610e+00	2.030000e-03
2.122468e-01	1.681530e+00	2.030000e-03
2.122943e-01	1.681450e+00	2.030000e-03
2.123419e-01	1.681360e+00	2.030000e-03
2.123894e-01	1.681280e+00	2.020000e-03
2.124370e-01	1.681200e+00	2.020000e-03
2.124846e-01	1.681120e+00	2.010000e-03
2.125322e-01	1.681030e+00	2.010000e-03
2.125798e-01	1.680950e+00	2.000000e-03
2.126275e-01	1.680870e+00	2.000000e-03
2.126751e-01	1.680790e+00	2.000000e-03
2.127228e-01	1.680700e+00	1.990000e-03
2.127706e-01	1.680620e+00	1.990000e-03
2.128183e-01	1.680530e+00	1.980000e-03
2.128661e-01	1.680450e+00	1.980000e-03
2.129138e-01	1.680370e+00	1.980000e-03
2.129616e-01	1.680300e+00	1.970000e-03
2.130095e-01	1.680210e+00	1.970000e-03
2.130573e-01	1.680130e+00	1.970000e-03
2.131052e-01	1.680050e+00	1.960000e-03
2.131531e-01	1.679970e+00	1.960000e-03
2.132010e-01	1.679890e+00	1.960000e-03
2.132489e-01	1.679800e+00	1.950000e-03
2.132969e-01	1.679720e+00	1.950000e-03
2.133448e-01	1.679640e+00	1.940000e-03
2.133928e-01	1.679560e+00	1.940000e-03
2.134409e-01	1.679490e+00	1.940000e-03
2.134889e-01	1.679410e+00	1.940000e-03
2.135370e-01	1.679330e+00	1.930000e-03
2.135850e-01	1.679250e+00	1.930000e-03
2.136331e-01	1.679170e+00	1.920000e-03
2.136813e-01	1.679090e+00	1.920000e-03
2.137294e-01	1.679010e+00	1.910000e-03
2.137776e-01	1.678930e+00	1.910000e-03
2.138258e-01	1.678850e+00	1.910000e-03
2.138740e-01	1.678770e+00	1.910000e-03
2.139222e-01	1.678690e+00	1.900000e-03
2.139705e-01	1.678620e+00	1.900000e-03
2.140188e-01	1.678540e+00	1.890000e-03
2.140671e-01	1.678470e+00	1.890000e-03
2.141154e-01	1.678390e+00	1.890000e-03
2.141637e-01	1.678310e+00	1.880000e-03
2.142121e-01	1.678230e+00	1.880000e-03
2.142605e-01	1.678150e+00	1.880000e-03
2.143089e-01	1.678080e+00	1.880000e-03
2.143573e-01	1.678000e+00	1.870000e-03
2.144058e-01	1.677920e+00	1.870000e-03
2.144543e-01	1.677850e+00	1.870000e-03
2.145027e-01	1.677770e+00	1.860000e-03
2.145513e-01	1.677700e+00	1.860000e-03
2.145998e-01	1.677620e+00	1.850000e-03
2.146484e-01	1.677540e+00	1.850000e-03
2.146970e-01	1.677470e+00	1.850000e-03
2.147456e-01	1.677390e+00	1.850000e-03
2.147942e-01	1.677310e+00	1.840000e-03
2.148428e-01	1.677240e+00	1.840000e-03
2.148915e-01	1.677160e+00	1.830000e-03
2.149402e-01	1.677090e+00	1.830000e-03
2.149889e-01	1.677020e+00	1.830000e-03
2.150377e-01	1.676940e+00	1.830000e-03
2.150864e-01	1.676870e+00	1.820000e-03
2.151352e-01	1.676790e+00	1.820000e-03
2.151840e-01	1.676720e+00	1.820000e-03
2.152328e-01	1.676640e+00	1.810000e-03
2.152817e-01	1.676570e+00	1.810000e-03
2.153306e-01	1.676490e+00	1.800000e-03
2.153795e-01	1.676420e+00	1.800000e-03
2.154284e-01	1.676350e+00	1.800000e-03
2.154773e-01	1.676270e+00	1.800000e-03
2.155263e-01	1.676200e+00	1.800000e-03
2.155753e-01	1.676130e+00	1.790000e-03
2.156243e-01	1.676060e+00	1.790000e-03
2.156733e-01	1.675980e+00	1.780000e-03
2.157223e-01	1.675910e+00	1.780000e-03
2.157714e-01	1.675840e+00	1.780000e-03
2.158205e-01	1.675760e+00	1.770000e-03
2.158696e-01	1.675690e+00	1.770000e-03
2.159188e-01	1.675620e+00	1.770000e-03
2.159679e-01	1.675550e+00	1.770000e-03
2.160171e-01	1.675480e+00	1.760000e-03
2.160663e-01	1.675410e+00	1.760000e-03
2.161156e-01	1.675340e+00	1.750000e-03
2.161648e-01	1.675260e+00	1.750000e-03
2.162141e-01	1.675190e+00	1.750000e-03
2.162634e-01	1.675110e+00	1.750000e-03
2.163127e-01	1.675040e+00	1.750000e-03
2.163620e-01	1.674970e+00	1.740000e-03
2.164114e-01	1.674900e+00	1.740000e-03
2.164608e-01	1.674830e+00	1.730000e-03
2.165102e-01	1.674760e+00	1.730000e-03
2.165596e-01	1.674690e+00	1.730000e-03
2.166091e-01	1.674620e+00	1.730000e-03
2.166586e-01	1.674550e+00	1.730000e-03
2.167081e-01	1.674480e+00	1.720000e-03
2.167576e-01	1.674410e+00	1.720000e-03
2.168071e-01	1.674340e+00	1.720000e-03
2.168567e-01	1.674270e+00	1.710000e-03
2.169063e-01	1.674200e+00	1.710000e-03
2.169559e-01	1.674130e+00	1.710000e-03
2.170055e-01	1.674060e+00	1.700000e-03
2.170552e-01	1.673990e+00	1.700000e-03
2.171049e-01	1.673920e+00	1.700000e-03
2.171546e-01	1.673860e+00	1.700000e-03
2.172043e-01	1.673790e+00	1.690000e-03
2.172540e-01	1.673720e+00	1.690000e-03
2.173038e-01	1.673650e+00	1.690000e-03
2.173536e-01	1.673580e+00	1.690000e-03
2.174034e-01	1.673510e+00	1.680000e-03
2.174533e-01	1.673450e+00	1.680000e-03
2.175031e-01	1.673380e+00	1.680000e-03
2.175530e-01	1.673310e+00	1.670000e-03
2.176029e-01	1.673240e+00	1.670000e-03
2.176529e-01	1.673170e+00	1.670000e-03
2.177028e-01	1.673110e+00	1.660000e-03
2.177528e-01	1.673040e+00	1.660000e-03
2.178028e-01	1.672970e+00	1.660000e-03
2.178528e-01	1.672900e+00	1.660000e-03
2.179029e-01	1.672840e+00	1.660000e-03
2.179529e-01	1.672770e+00	1.650000e-03
2.180030e-01	1.672700e+00	1.650000e-03
2.180531e-01	1.672630e+00	1.650000e-03
2.181033e-01	1.672560e+00	1.640000e-03
2.181534e-01	1.672500e+00	1.640000e-03
2.182036e-01	1.672430e+00	1.640000e-03
2.182538e-01	1.672370e+00	1.640000e-03
2.183041e-01	1.672300e+00	1.640000e-03
2.183543e-01	1.672240e+00	1.630000e-03
