161 .False.
#Refractive index of SiO[s]; Philipp (1985) in Palik: "Handbook of Optical Constants of Solids"; Wetzel et al. (2013) A&A, Vol 553:A92
#Data points: 161
#
#Wavelength (micron) n  k
4.959000e-02	8.690000e-01	2.717000e-01
5.166000e-02	8.444000e-01	3.060000e-01
5.391000e-02	8.371000e-01	3.505000e-01
5.510000e-02	8.391000e-01	3.761000e-01
5.636000e-02	8.454000e-01	3.987000e-01
5.767000e-02	8.519000e-01	4.222000e-01
5.904000e-02	8.610000e-01	4.456000e-01
6.048000e-02	8.721000e-01	4.688000e-01
6.199000e-02	8.853000e-01	4.919000e-01
6.358000e-02	9.007000e-01	5.140000e-01
6.526000e-02	9.178000e-01	5.362000e-01
6.702000e-02	9.376000e-01	5.578000e-01
6.888000e-02	9.596000e-01	5.771000e-01
7.085000e-02	9.825000e-01	5.961000e-01
7.293000e-02	1.008000e+00	6.147000e-01
7.514000e-02	1.036000e+00	6.309000e-01
7.749000e-02	1.066000e+00	6.453000e-01
7.999000e-02	1.098000e+00	6.566000e-01
8.266000e-02	1.132000e+00	6.651000e-01
8.551000e-02	1.166000e+00	6.692000e-01
8.856000e-02	1.199000e+00	6.698000e-01
9.184000e-02	1.231000e+00	6.666000e-01
9.537000e-02	1.259000e+00	6.602000e-01
9.919000e-02	1.283000e+00	6.523000e-01
1.033000e-01	1.307000e+00	6.464000e-01
1.078000e-01	1.311000e+00	6.293000e-01
1.127000e-01	1.320000e+00	6.529000e-01
1.181000e-01	1.345000e+00	6.701000e-01
1.240000e-01	1.378000e+00	6.843000e-01
1.305000e-01	1.412000e+00	6.920000e-01
1.378000e-01	1.445000e+00	7.002000e-01
1.459000e-01	1.482000e+00	7.153000e-01
1.550000e-01	1.530000e+00	7.333000e-01
1.653000e-01	1.593000e+00	7.473000e-01
1.771000e-01	1.667000e+00	7.479000e-01
1.907000e-01	1.746000e+00	7.348000e-01
2.066000e-01	1.829000e+00	7.084000e-01
2.156000e-01	1.871000e+00	6.890000e-01
2.254000e-01	1.914000e+00	6.663000e-01
2.362000e-01	1.957000e+00	6.383000e-01
2.480000e-01	2.001000e+00	6.052000e-01
2.583000e-01	2.034000e+00	5.723000e-01
2.695000e-01	2.066000e+00	5.364000e-01
2.818000e-01	2.094000e+00	4.948000e-01
2.952000e-01	2.119000e+00	4.499000e-01
3.100000e-01	2.141000e+00	4.006000e-01
3.263000e-01	2.157000e+00	3.453000e-01
3.444000e-01	2.162000e+00	2.872000e-01
3.647000e-01	2.160000e+00	2.287000e-01
3.875000e-01	2.144000e+00	1.706000e-01
4.133000e-01	2.116000e+00	1.211000e-01
4.428000e-01	2.085000e+00	8.374000e-02
4.769000e-01	2.053000e+00	5.544000e-02
5.166000e-01	2.021000e+00	3.533000e-02
5.636000e-01	1.994000e+00	2.153000e-02
6.199000e-01	1.969000e+00	1.175000e-02
6.888000e-01	1.948000e+00	5.230000e-03
7.749000e-01	1.929000e+00	1.510000e-03
8.856000e-01	1.913000e+00	1.511446e-03
1.000000e+00	1.870000e+00	1.515991e-03
2.000000e+00	1.840000e+00	1.698571e-03
3.000000e+00	1.820000e+00	2.229113e-03
4.000000e+00	1.800000e+00	3.431828e-03
5.000000e+00	1.750000e+00	6.207943e-03
6.000000e+00	1.700000e+00	1.321546e-02
7.000000e+00	1.600000e+00	3.315988e-02
7.500000e+00	1.420000e+00	5.589405e-02
8.000000e+00	1.150000e+00	9.822535e-02
8.500000e+00	9.000000e-01	1.800000e-01
9.000000e+00	9.100000e-01	7.500000e-01
9.500000e+00	1.200000e+00	1.200000e+00
9.556433e+00	1.489972e+00	1.177050e+00
9.596549e+00	1.525292e+00	1.204179e+00
9.637002e+00	1.567770e+00	1.239430e+00
9.677799e+00	1.615904e+00	1.258513e+00
9.718942e+00	1.665274e+00	1.280074e+00
9.739645e+00	1.702741e+00	1.305546e+00
9.802287e+00	1.776927e+00	1.306212e+00
9.844498e+00	1.833585e+00	1.315204e+00
9.910886e+00	1.919863e+00	1.311529e+00
9.975758e+00	2.014230e+00	1.291267e+00
1.006359e+01	2.111941e+00	1.277946e+00
1.013048e+01	2.193601e+00	1.261314e+00
1.029007e+01	2.366554e+00	1.156387e+00
1.036002e+01	2.425723e+00	1.093983e+00
1.045478e+01	2.496415e+00	1.029774e+00
1.050281e+01	2.534048e+00	9.814149e-01
1.055128e+01	2.559341e+00	9.304639e-01
1.060021e+01	2.592903e+00	8.835187e-01
1.062484e+01	2.597278e+00	8.442845e-01
1.067445e+01	2.613509e+00	8.040944e-01
1.069943e+01	2.615638e+00	7.630758e-01
1.074974e+01	2.630830e+00	7.242713e-01
1.080052e+01	2.636795e+00	6.822745e-01
1.085179e+01	2.639419e+00	6.473102e-01
1.088049e+01	2.636721e+00	6.079312e-01
1.093252e+01	2.633862e+00	5.739143e-01
1.098505e+01	2.628511e+00	5.349162e-01
1.101151e+01	2.624734e+00	5.012080e-01
1.106480e+01	2.617573e+00	4.622447e-01
1.111862e+01	2.608979e+00	4.287600e-01
1.117296e+01	2.594258e+00	3.904961e-01
1.120033e+01	2.587502e+00	3.594561e-01
1.128325e+01	2.564233e+00	3.212178e-01
1.131116e+01	2.551691e+00	2.902871e-01
1.139574e+01	2.520504e+00	2.519912e-01
1.145282e+01	2.490288e+00	2.187094e-01
1.156874e+01	2.441941e+00	1.887257e-01
1.165722e+01	2.399207e+00	1.575115e-01
1.189994e+01	2.300797e+00	1.281941e-01
1.218898e+01	2.203247e+00	1.270243e-01
1.248862e+01	2.135096e+00	1.487392e-01
1.280336e+01	2.078429e+00	1.818214e-01
1.313438e+01	2.061881e+00	2.198555e-01
1.340391e+01	2.060696e+00	2.419394e-01
1.381336e+01	2.063860e+00	2.675523e-01
1.419945e+01	2.082675e+00	2.723772e-01
1.474910e+01	2.095526e+00	2.599105e-01
1.513981e+01	2.100891e+00	2.412989e-01
1.561077e+01	2.086680e+00	2.136286e-01
1.599300e+01	2.066920e+00	1.974280e-01
1.669371e+01	2.021666e+00	1.869265e-01
1.739222e+01	1.962005e+00	1.964542e-01
1.800875e+01	1.914553e+00	2.288958e-01
1.837874e+01	1.894143e+00	2.552505e-01
1.891085e+01	1.867980e+00	2.956085e-01
1.931018e+01	1.854284e+00	3.343944e-01
1.981223e+01	1.846115e+00	3.767237e-01
2.016169e+01	1.846703e+00	4.174403e-01
2.061623e+01	1.848235e+00	4.583502e-01
2.089893e+01	1.857058e+00	4.927207e-01
2.138773e+01	1.876975e+00	5.357058e-01
2.169215e+01	1.892948e+00	5.630565e-01
2.233985e+01	1.928932e+00	6.033771e-01
2.278516e+01	1.961372e+00	6.322739e-01
2.336740e+01	1.981921e+00	6.599638e-01
2.385507e+01	2.032640e+00	6.768871e-01
2.449405e+01	2.075960e+00	6.954562e-01
2.503041e+01	2.110561e+00	7.126398e-01
2.602783e+01	2.181298e+00	7.244863e-01
2.694826e+01	2.242124e+00	7.216492e-01
2.865599e+01	2.332095e+00	7.035097e-01
3.057207e+01	2.420214e+00	6.778951e-01
3.299920e+01	2.509515e+00	6.207163e-01
3.398018e+01	2.535765e+00	5.931425e-01
3.556612e+01	2.568198e+00	5.533513e-01
3.674107e+01	2.582867e+00	5.239310e-01
3.860225e+01	2.607663e+00	4.871372e-01
3.995146e+01	2.619875e+00	4.589601e-01
4.216189e+01	2.636989e+00	4.242057e-01
4.419979e+01	2.651768e+00	3.905588e-01
4.692132e+01	2.663473e+00	3.548660e-01
4.841176e+01	2.666480e+00	3.318403e-01
5.169598e+01	2.670865e+00	2.942757e-01
5.351105e+01	2.671291e+00	2.716441e-01
5.763305e+01	2.665279e+00	2.383033e-01
6.069322e+01	2.657190e+00	2.134861e-01
6.594551e+01	2.646756e+00	1.883678e-01
7.219298e+01	2.633676e+00	1.635326e-01
8.415133e+01	2.615161e+00	1.416209e-01
1.008578e+02	2.597243e+00	1.309836e-01
