2819 .False.
#  Water rich atmosphere tholin haze optical constants @ T = 400 K
#  ref: Optical properties of organic hazes in water-rich exoplanet atmospheres: Implications for observations with JWST
#  He, Chao; Radke, Michael; Moran, Sarah E.; Hörst, Sarah M.; Lewis, Nikole K.; Moses, Julianne I.; Marley, Mark S.; Kempton, Eliza M.-R.; Morley, Caroline V.; Valenti, Jeff A.; Vuitton, Véronique
# wavelength  n  k
4.10008000e-01 1.78234151e+00 1.09750010e-02
4.20008000e-01 1.75262080e+00 1.59917453e-02
4.30008000e-01 1.73159708e+00 1.44953924e-02
4.40008000e-01 1.71566865e+00 1.36866418e-02
4.50008000e-01 1.70296985e+00 1.31295458e-02
4.60008000e-01 1.69254131e+00 1.26447930e-02
4.70008000e-01 1.68375861e+00 1.22218607e-02
4.80008000e-01 1.67620563e+00 1.18285474e-02
4.90008000e-01 1.66962625e+00 1.14447589e-02
5.00008000e-01 1.66382888e+00 1.10978713e-02
5.10008000e-01 1.65876352e+00 1.07753521e-02
5.20008000e-01 1.65430606e+00 1.04867400e-02
5.30008000e-01 1.65001871e+00 1.02277546e-02
5.40008000e-01 1.64571565e+00 9.99922026e-03
5.50008000e-01 1.64181458e+00 9.80026906e-03
5.60008000e-01 1.63826850e+00 9.62289301e-03
5.70008000e-01 1.63503139e+00 9.46301540e-03
5.80008000e-01 1.63206347e+00 9.31635842e-03
5.90008000e-01 1.62933363e+00 9.18103471e-03
6.00008000e-01 1.62681232e+00 9.05598868e-03
6.10008000e-01 1.62447814e+00 8.94131520e-03
6.20008000e-01 1.62231369e+00 8.83489640e-03
6.30008000e-01 1.62029338e+00 8.72603505e-03
6.40008000e-01 1.61840502e+00 8.64060003e-03
6.50008000e-01 1.61664975e+00 8.55635788e-03
6.60008000e-01 1.61500369e+00 8.47585550e-03
6.70008000e-01 1.61345913e+00 8.39831168e-03
6.80008000e-01 1.61200689e+00 8.32613660e-03
6.90008000e-01 1.61063918e+00 8.25765466e-03
7.00008000e-01 1.60935055e+00 8.19345237e-03
7.10008000e-01 1.60813375e+00 8.13178005e-03
7.20008000e-01 1.60698404e+00 8.07293504e-03
7.30008000e-01 1.60589578e+00 8.01627775e-03
7.40008000e-01 1.60486399e+00 7.96201096e-03
7.50008000e-01 1.60388624e+00 7.90914942e-03
7.60008000e-01 1.60295608e+00 7.85609543e-03
7.70008000e-01 1.60206953e+00 7.80616364e-03
7.80008000e-01 1.60122593e+00 7.75728315e-03
7.90008000e-01 1.60042020e+00 7.71060412e-03
8.00008000e-01 1.59965252e+00 7.66563935e-03
8.10008000e-01 1.59891799e+00 7.62134589e-03
8.20008000e-01 1.59821527e+00 7.57968076e-03
8.30008000e-01 1.59754210e+00 7.53890549e-03
8.40008000e-01 1.59689743e+00 7.50098318e-03
8.50008000e-01 1.59627918e+00 7.46377348e-03
8.60008000e-01 1.59568487e+00 7.42902215e-03
8.70008000e-01 1.59511564e+00 7.39671958e-03
8.80008000e-01 1.59456842e+00 7.36572244e-03
8.90008000e-01 1.59404324e+00 7.33659429e-03
9.00008000e-01 1.59353805e+00 7.30895011e-03
9.10008000e-01 1.59305257e+00 7.28296147e-03
9.20008000e-01 1.59258605e+00 7.25862667e-03
9.30008000e-01 1.59213881e+00 7.23326637e-03
9.40008000e-01 1.59170444e+00 7.20878731e-03
9.50008000e-01 1.59128657e+00 7.18600210e-03
9.60008000e-01 1.59088401e+00 7.16442306e-03
9.70008000e-01 1.59049617e+00 7.14354794e-03
9.80008000e-01 1.59012211e+00 7.12227531e-03
9.90008000e-01 1.58976100e+00 7.10115025e-03
1.00000800e+00 1.58940404e+00 7.07028808e-03
1.01000800e+00 1.58905959e+00 7.07765048e-03
1.02000800e+00 1.58873750e+00 7.01891959e-03
1.03000800e+00 1.58840702e+00 7.04153956e-03
1.04000800e+00 1.58809497e+00 7.01430047e-03
1.05000800e+00 1.58781586e+00 6.99755680e-03
1.06000800e+00 1.58750186e+00 7.00425504e-03
1.07000800e+00 1.58724608e+00 6.99013580e-03
1.08000800e+00 1.58695585e+00 6.96058647e-03
1.09000800e+00 1.58671618e+00 6.98629398e-03
1.10000800e+00 1.58648019e+00 6.94517730e-03
1.11000800e+00 1.58624197e+00 6.91500687e-03
1.12000800e+00 1.58596142e+00 6.90622826e-03
1.13000800e+00 1.58574237e+00 6.89378064e-03
1.14000800e+00 1.58550246e+00 6.87287055e-03
1.15000800e+00 1.58525944e+00 6.90619016e-03
1.16000800e+00 1.58507521e+00 6.88557264e-03
1.17000800e+00 1.58487343e+00 6.87113418e-03
1.18000800e+00 1.58466902e+00 6.86138127e-03
1.19000800e+00 1.58446723e+00 6.85903446e-03
1.20000800e+00 1.58429823e+00 6.84909285e-03
1.21000800e+00 1.58411210e+00 6.82460699e-03
1.22000800e+00 1.58391357e+00 6.81177133e-03
1.23000800e+00 1.58375048e+00 6.82105528e-03
1.24000800e+00 1.58359924e+00 6.79218756e-03
1.25000800e+00 1.58342562e+00 6.75555071e-03
1.26000800e+00 1.58322398e+00 6.74663556e-03
1.27000800e+00 1.58306585e+00 6.75022733e-03
1.28000800e+00 1.58291263e+00 6.74772432e-03
1.29000800e+00 1.58278140e+00 6.74524027e-03
1.30000800e+00 1.58262726e+00 6.72670896e-03
1.31000800e+00 1.58248205e+00 6.71737707e-03
1.32000800e+00 1.58234196e+00 6.68088622e-03
1.33000800e+00 1.58218589e+00 6.69062253e-03
1.34000800e+00 1.58207532e+00 6.67075990e-03
1.35000800e+00 1.58197567e+00 6.63814847e-03
1.36000800e+00 1.58179030e+00 6.57602053e-03
1.37000800e+00 1.58163752e+00 6.57976371e-03
1.38000800e+00 1.58150629e+00 6.57959716e-03
1.39000800e+00 1.58137980e+00 6.54657225e-03
1.40000800e+00 1.58122038e+00 6.54301614e-03
1.41000800e+00 1.58108479e+00 6.56156351e-03
1.42000800e+00 1.58096446e+00 6.56212618e-03
1.43000800e+00 1.58087593e+00 6.55672871e-03
1.44000800e+00 1.58073105e+00 6.53412734e-03
1.45000800e+00 1.58062407e+00 6.53446914e-03
1.46000800e+00 1.58052008e+00 6.54226343e-03
1.47000800e+00 1.58044292e+00 6.51937469e-03
1.48000800e+00 1.58028367e+00 6.50030169e-03
1.49000800e+00 1.58019519e+00 6.49463287e-03
1.50000800e+00 1.58008042e+00 6.50024907e-03
1.51000800e+00 1.57999755e+00 6.48923126e-03
1.52000800e+00 1.57989768e+00 6.46316883e-03
1.53000800e+00 1.57979478e+00 6.44366987e-03
1.54000800e+00 1.57969168e+00 6.44362335e-03
1.55000800e+00 1.57959442e+00 6.41847297e-03
1.56000800e+00 1.57947801e+00 6.41484584e-03
1.57000800e+00 1.57939200e+00 6.39752785e-03
1.58000800e+00 1.57929846e+00 6.38951252e-03
1.59000800e+00 1.57920682e+00 6.36453386e-03
1.60000800e+00 1.57910968e+00 6.32748838e-03
1.61000800e+00 1.57898896e+00 6.34555387e-03
1.62000800e+00 1.57889688e+00 6.31215907e-03
1.63000800e+00 1.57879969e+00 6.33199946e-03
1.64000800e+00 1.57870885e+00 6.28062917e-03
1.65000800e+00 1.57860611e+00 6.30990219e-03
1.66000800e+00 1.57853077e+00 6.27357235e-03
1.67000800e+00 1.57841516e+00 6.27739955e-03
1.68000800e+00 1.57832096e+00 6.27934469e-03
1.69000800e+00 1.57823421e+00 6.29228574e-03
1.70000800e+00 1.57820178e+00 6.24405172e-03
1.71000800e+00 1.57806391e+00 6.23126747e-03
1.72000800e+00 1.57796583e+00 6.23780117e-03
1.73000800e+00 1.57788054e+00 6.26384445e-03
1.74000800e+00 1.57783509e+00 6.26221290e-03
1.75000800e+00 1.57778009e+00 6.22006566e-03
1.76000800e+00 1.57769035e+00 6.20426282e-03
1.77000800e+00 1.57762202e+00 6.15294595e-03
1.78000800e+00 1.57752283e+00 6.15138401e-03
1.79000800e+00 1.57743629e+00 6.13143919e-03
1.80000800e+00 1.57735775e+00 6.10999044e-03
1.81000800e+00 1.57727364e+00 6.07251016e-03
1.82000800e+00 1.57716331e+00 6.04053643e-03
1.83000800e+00 1.57707089e+00 6.02668475e-03
1.84000800e+00 1.57696897e+00 6.00001894e-03
1.85000800e+00 1.57685222e+00 6.02194173e-03
1.86000800e+00 1.57679251e+00 5.98507440e-03
1.87000800e+00 1.57668744e+00 5.98834881e-03
1.88000800e+00 1.57659101e+00 5.98827212e-03
1.89000800e+00 1.57651068e+00 5.94562953e-03
1.90000800e+00 1.57643554e+00 5.93068450e-03
1.91000800e+00 1.57629329e+00 5.91973699e-03
1.92000800e+00 1.57621108e+00 5.91886519e-03
1.93000800e+00 1.57612132e+00 5.90777818e-03
1.94000800e+00 1.57601022e+00 5.91481484e-03
1.95000800e+00 1.57593046e+00 5.93351184e-03
1.96000800e+00 1.57585480e+00 5.87517327e-03
1.97000800e+00 1.57573078e+00 5.91317976e-03
1.98000800e+00 1.57564814e+00 5.91170017e-03
1.99000800e+00 1.57559070e+00 5.89920229e-03
2.00000800e+00 1.57543942e+00 5.91119509e-03
2.01000800e+00 1.57543614e+00 5.92643584e-03
2.02000800e+00 1.57535587e+00 5.85804337e-03
2.03000800e+00 1.57524050e+00 5.83149527e-03
2.04000800e+00 1.57511624e+00 5.85906796e-03
2.05000800e+00 1.57504985e+00 5.80524775e-03
2.06000800e+00 1.57493342e+00 5.85330078e-03
2.07000800e+00 1.57484875e+00 5.81269288e-03
2.08000800e+00 1.57471811e+00 5.79882827e-03
2.09000800e+00 1.57467647e+00 5.88086628e-03
2.10000800e+00 1.57458587e+00 5.80867447e-03
2.11000800e+00 1.57450094e+00 5.77453890e-03
2.12000800e+00 1.57439243e+00 5.76982543e-03
2.13000800e+00 1.57426573e+00 5.76085196e-03
2.14000800e+00 1.57417109e+00 5.75222502e-03
2.15000800e+00 1.57405359e+00 5.78489784e-03
2.16000800e+00 1.57396802e+00 5.74279519e-03
2.17000800e+00 1.57389936e+00 5.79989590e-03
2.18000800e+00 1.57380091e+00 5.77594833e-03
2.19000800e+00 1.57371201e+00 5.75959253e-03
2.20000800e+00 1.57365441e+00 5.71618482e-03
2.21000800e+00 1.57354768e+00 5.68737407e-03
2.22000800e+00 1.57341633e+00 5.63556518e-03
2.23000800e+00 1.57326029e+00 5.58544528e-03
2.24000800e+00 1.57310759e+00 5.62223777e-03
2.25000800e+00 1.57299019e+00 5.63054806e-03
2.26000800e+00 1.57283640e+00 5.63090308e-03
2.27000800e+00 1.57272714e+00 5.72272725e-03
2.28000800e+00 1.57265789e+00 5.70667065e-03
2.29000800e+00 1.57255781e+00 5.72690399e-03
2.30000800e+00 1.57248338e+00 5.74855097e-03
2.31000800e+00 1.57241076e+00 5.69978888e-03
2.32000800e+00 1.57231782e+00 5.68927049e-03
2.33000800e+00 1.57218854e+00 5.61565100e-03
2.34000800e+00 1.57205727e+00 5.64552215e-03
2.35000800e+00 1.57195624e+00 5.59576845e-03
2.36000800e+00 1.57179989e+00 5.55305230e-03
2.37000800e+00 1.57167111e+00 5.56805996e-03
2.38000800e+00 1.57152788e+00 5.55700124e-03
2.39000800e+00 1.57141350e+00 5.54144062e-03
2.40000800e+00 1.57124306e+00 5.52012518e-03
2.41000800e+00 1.57111035e+00 5.51803204e-03
2.42000800e+00 1.57096361e+00 5.53161056e-03
2.43000800e+00 1.57084999e+00 5.50933683e-03
2.44000800e+00 1.57066285e+00 5.45744627e-03
2.45000800e+00 1.57049548e+00 5.50811933e-03
2.46000800e+00 1.57036993e+00 5.49457360e-03
2.47000800e+00 1.57021048e+00 5.50638868e-03
2.48000800e+00 1.57009089e+00 5.48917144e-03
2.49000800e+00 1.56991046e+00 5.46749249e-03
2.50000800e+00 1.56975749e+00 5.47186133e-03
2.51000800e+00 1.56959712e+00 5.46221377e-03
2.52000800e+00 1.56945979e+00 5.43552167e-03
2.53000800e+00 1.56927366e+00 5.38503658e-03
2.54000800e+00 1.56907729e+00 5.36867230e-03
2.55000800e+00 1.56885225e+00 5.33487080e-03
2.56000800e+00 1.56867949e+00 5.35148905e-03
2.57000800e+00 1.56847463e+00 5.32121122e-03
2.58000800e+00 1.56826489e+00 5.31459947e-03
2.59000800e+00 1.56807174e+00 5.28031527e-03
2.60000800e+00 1.56782369e+00 5.22843127e-03
2.61000800e+00 1.56757171e+00 5.19956219e-03
2.62000800e+00 1.56729095e+00 5.20572566e-03
2.63000800e+00 1.56705121e+00 5.18041341e-03
2.64000800e+00 1.56676563e+00 5.16347370e-03
2.65000800e+00 1.56647099e+00 5.16369568e-03
2.66000800e+00 1.56618311e+00 5.15923233e-03
2.67000800e+00 1.56586225e+00 5.14952820e-03
2.68000800e+00 1.56554587e+00 5.14898973e-03
2.69000800e+00 1.56522978e+00 5.15018247e-03
2.70000800e+00 1.56486525e+00 5.11319972e-03
2.71000800e+00 1.56446811e+00 5.11724946e-03
2.72000800e+00 1.56408849e+00 5.08282642e-03
2.73000800e+00 1.56363391e+00 5.07237300e-03
2.74000800e+00 1.56312842e+00 5.05790624e-03
2.75000800e+00 1.56257730e+00 5.06813394e-03
2.76000800e+00 1.56200073e+00 5.10128098e-03
2.77000800e+00 1.56131172e+00 5.16482731e-03
2.78000800e+00 1.56065576e+00 5.30362243e-03
2.79000800e+00 1.55982218e+00 5.40216236e-03
2.80000800e+00 1.55896283e+00 5.77188854e-03
2.81000800e+00 1.55820507e+00 6.11306949e-03
2.82000800e+00 1.55719268e+00 6.46489454e-03
2.83000800e+00 1.55620264e+00 7.06417722e-03
2.84000800e+00 1.55500802e+00 8.02460620e-03
2.85000800e+00 1.55426218e+00 9.19419900e-03
2.86000800e+00 1.55361736e+00 1.05053274e-02
2.87000800e+00 1.55323635e+00 1.17220516e-02
2.88000800e+00 1.55297927e+00 1.30258421e-02
2.89000800e+00 1.55281800e+00 1.42409384e-02
2.90000800e+00 1.55276214e+00 1.54008604e-02
2.91000800e+00 1.55268032e+00 1.66390683e-02
2.92000800e+00 1.55266647e+00 1.78526070e-02
2.93000800e+00 1.55271828e+00 1.92847620e-02
2.94000800e+00 1.55304131e+00 2.07158888e-02
2.95000800e+00 1.55349811e+00 2.21537098e-02
2.96000800e+00 1.55425175e+00 2.36373499e-02
2.97000800e+00 1.55526129e+00 2.48355631e-02
2.98000800e+00 1.55635146e+00 2.60586377e-02
2.99000800e+00 1.55775696e+00 2.69612330e-02
3.00000800e+00 1.55926581e+00 2.75372803e-02
3.01000800e+00 1.56061043e+00 2.77209882e-02
3.02000800e+00 1.56203054e+00 2.78521672e-02
3.03000800e+00 1.56308566e+00 2.74202825e-02
3.04000800e+00 1.56384019e+00 2.71932579e-02
3.05000800e+00 1.56459873e+00 2.69129884e-02
3.06000800e+00 1.56513181e+00 2.67229778e-02
3.07000800e+00 1.56554981e+00 2.64421936e-02
3.08000800e+00 1.56595415e+00 2.64612875e-02
3.09000800e+00 1.56637614e+00 2.63619978e-02
3.10000800e+00 1.56689842e+00 2.63969492e-02
3.11000800e+00 1.56734637e+00 2.63805312e-02
3.12000800e+00 1.56799990e+00 2.63508592e-02
3.13000800e+00 1.56858194e+00 2.61726714e-02
3.14000800e+00 1.56925731e+00 2.58938165e-02
3.15000800e+00 1.56972167e+00 2.54444566e-02
3.16000800e+00 1.57017577e+00 2.49704218e-02
3.17000800e+00 1.57040098e+00 2.44174417e-02
3.18000800e+00 1.57053874e+00 2.39248432e-02
3.19000800e+00 1.57056884e+00 2.34918499e-02
3.20000800e+00 1.57051426e+00 2.30523620e-02
3.21000800e+00 1.57033559e+00 2.27414239e-02
3.22000800e+00 1.57023594e+00 2.25073552e-02
3.23000800e+00 1.57004080e+00 2.22913246e-02
3.24000800e+00 1.56992274e+00 2.21336227e-02
3.25000800e+00 1.56970585e+00 2.19348134e-02
3.26000800e+00 1.56950729e+00 2.17461972e-02
3.27000800e+00 1.56919670e+00 2.15232749e-02
3.28000800e+00 1.56877602e+00 2.13438527e-02
3.29000800e+00 1.56819660e+00 2.11416973e-02
3.30000800e+00 1.56731251e+00 2.10445499e-02
3.31000800e+00 1.56623799e+00 2.12012456e-02
3.32000800e+00 1.56477436e+00 2.16546103e-02
3.33000800e+00 1.56309287e+00 2.28864522e-02
3.34000800e+00 1.56150106e+00 2.51604359e-02
3.35000800e+00 1.56072210e+00 2.87104138e-02
3.36000800e+00 1.56200623e+00 3.30414923e-02
3.37000800e+00 1.56573712e+00 3.58810704e-02
3.38000800e+00 1.56949941e+00 3.61880724e-02
3.39000800e+00 1.57173734e+00 3.55805516e-02
3.40000800e+00 1.57287561e+00 3.59328442e-02
3.41000800e+00 1.57598084e+00 3.65126397e-02
3.42000800e+00 1.57887881e+00 3.51809507e-02
3.43000800e+00 1.58078739e+00 3.31123105e-02
3.44000800e+00 1.58159839e+00 3.09965733e-02
3.45000800e+00 1.58150006e+00 2.93316594e-02
3.46000800e+00 1.58101928e+00 2.86524132e-02
3.47000800e+00 1.58097773e+00 2.92239291e-02
3.48000800e+00 1.58296451e+00 2.98413842e-02
3.49000800e+00 1.58536646e+00 2.82792723e-02
3.50000800e+00 1.58632628e+00 2.59508625e-02
3.51000800e+00 1.58651849e+00 2.38251793e-02
3.52000800e+00 1.58618675e+00 2.20083204e-02
3.53000800e+00 1.58555718e+00 2.06160637e-02
3.54000800e+00 1.58491650e+00 1.95699999e-02
3.55000800e+00 1.58427605e+00 1.87466723e-02
3.56000800e+00 1.58372273e+00 1.80893254e-02
3.57000800e+00 1.58316849e+00 1.75183498e-02
3.58000800e+00 1.58265790e+00 1.70657729e-02
3.59000800e+00 1.58221171e+00 1.66705293e-02
3.60000800e+00 1.58175951e+00 1.63106044e-02
3.61000800e+00 1.58134918e+00 1.60632268e-02
3.62000800e+00 1.58100861e+00 1.58317169e-02
3.63000800e+00 1.58068891e+00 1.56134734e-02
3.64000800e+00 1.58038629e+00 1.54652711e-02
3.65000800e+00 1.58019396e+00 1.53048776e-02
3.66000800e+00 1.58004061e+00 1.50861149e-02
3.67000800e+00 1.57985387e+00 1.48601529e-02
3.68000800e+00 1.57966957e+00 1.45992974e-02
3.69000800e+00 1.57946697e+00 1.43621857e-02
3.70000800e+00 1.57922476e+00 1.41543611e-02
3.71000800e+00 1.57904582e+00 1.39462500e-02
3.72000800e+00 1.57880117e+00 1.37152732e-02
3.73000800e+00 1.57858483e+00 1.35514567e-02
3.74000800e+00 1.57838646e+00 1.33555869e-02
3.75000800e+00 1.57818128e+00 1.31774022e-02
3.76000800e+00 1.57797908e+00 1.30144340e-02
3.77000800e+00 1.57777682e+00 1.28105832e-02
3.78000800e+00 1.57754991e+00 1.26473706e-02
3.79000800e+00 1.57733775e+00 1.24911358e-02
3.80000800e+00 1.57709126e+00 1.23222288e-02
3.81000800e+00 1.57687126e+00 1.22028303e-02
3.82000800e+00 1.57667791e+00 1.20682320e-02
3.83000800e+00 1.57645172e+00 1.19331999e-02
3.84000800e+00 1.57623906e+00 1.18312304e-02
3.85000800e+00 1.57604482e+00 1.17003931e-02
3.86000800e+00 1.57584135e+00 1.15648528e-02
3.87000800e+00 1.57560780e+00 1.14492827e-02
3.88000800e+00 1.57540470e+00 1.13648712e-02
3.89000800e+00 1.57518373e+00 1.12412285e-02
3.90000800e+00 1.57497236e+00 1.11505401e-02
3.91000800e+00 1.57476341e+00 1.10524181e-02
3.92000800e+00 1.57456118e+00 1.09648273e-02
3.93000800e+00 1.57434445e+00 1.08816531e-02
3.94000800e+00 1.57415239e+00 1.07802282e-02
3.95000800e+00 1.57392787e+00 1.06985279e-02
3.96000800e+00 1.57372434e+00 1.05982623e-02
3.97000800e+00 1.57350580e+00 1.05338661e-02
3.98000800e+00 1.57327030e+00 1.04426807e-02
3.99000800e+00 1.57307074e+00 1.03868109e-02
4.00000800e+00 1.57285031e+00 1.03238020e-02
4.01000800e+00 1.57263194e+00 1.02561165e-02
4.02000800e+00 1.57242846e+00 1.01840901e-02
4.03000800e+00 1.57220072e+00 1.01327430e-02
4.04000800e+00 1.57199813e+00 1.00960230e-02
4.05000800e+00 1.57177880e+00 1.00158702e-02
4.06000800e+00 1.57156988e+00 9.96120477e-03
4.07000800e+00 1.57135513e+00 9.91800354e-03
4.08000800e+00 1.57114942e+00 9.86785679e-03
4.09000800e+00 1.57091036e+00 9.79493517e-03
4.10000800e+00 1.57072215e+00 9.74714428e-03
4.11000800e+00 1.57047752e+00 9.70333413e-03
4.12000800e+00 1.57025773e+00 9.63811551e-03
4.13000800e+00 1.57001166e+00 9.58131149e-03
4.14000800e+00 1.56977837e+00 9.55814295e-03
4.15000800e+00 1.56953271e+00 9.54120540e-03
4.16000800e+00 1.56933377e+00 9.48969858e-03
4.17000800e+00 1.56913184e+00 9.45837996e-03
4.18000800e+00 1.56891249e+00 9.41970562e-03
4.19000800e+00 1.56870795e+00 9.35237097e-03
4.20000800e+00 1.56856351e+00 9.24252764e-03
4.21000800e+00 1.56831175e+00 9.05657944e-03
4.22000800e+00 1.56793705e+00 8.84969872e-03
4.23000800e+00 1.56751399e+00 8.74468759e-03
4.24000800e+00 1.56702707e+00 8.75570155e-03
4.25000800e+00 1.56659700e+00 8.92245709e-03
4.26000800e+00 1.56653308e+00 8.94355695e-03
4.27000800e+00 1.56614990e+00 8.83304815e-03
4.28000800e+00 1.56572765e+00 8.82665024e-03
4.29000800e+00 1.56538552e+00 8.84548343e-03
4.30000800e+00 1.56498239e+00 8.92861797e-03
4.31000800e+00 1.56461565e+00 8.95409184e-03
4.32000800e+00 1.56429519e+00 9.06145452e-03
4.33000800e+00 1.56394886e+00 9.09374536e-03
4.34000800e+00 1.56358940e+00 9.08747480e-03
4.35000800e+00 1.56322784e+00 9.13947131e-03
4.36000800e+00 1.56278751e+00 9.13934958e-03
4.37000800e+00 1.56234987e+00 9.13295375e-03
4.38000800e+00 1.56183695e+00 9.17828729e-03
4.39000800e+00 1.56124325e+00 9.18510997e-03
4.40000800e+00 1.56058535e+00 9.26664848e-03
4.41000800e+00 1.55978871e+00 9.45878559e-03
4.42000800e+00 1.55891941e+00 9.80340112e-03
4.43000800e+00 1.55806920e+00 1.04776061e-02
4.44000800e+00 1.55742205e+00 1.14338943e-02
4.45000800e+00 1.55732170e+00 1.24445405e-02
4.46000800e+00 1.55757362e+00 1.30651282e-02
4.47000800e+00 1.55766219e+00 1.30846576e-02
4.48000800e+00 1.55727610e+00 1.29442132e-02
4.49000800e+00 1.55629791e+00 1.30469701e-02
4.50000800e+00 1.55530562e+00 1.37348877e-02
4.51000800e+00 1.55453561e+00 1.47331806e-02
4.52000800e+00 1.55393420e+00 1.56431052e-02
4.53000800e+00 1.55319020e+00 1.67578852e-02
4.54000800e+00 1.55235349e+00 1.82188114e-02
4.55000800e+00 1.55184147e+00 2.03454989e-02
4.56000800e+00 1.55199253e+00 2.27621629e-02
4.57000800e+00 1.55289433e+00 2.51054939e-02
4.58000800e+00 1.55429811e+00 2.72564351e-02
4.59000800e+00 1.55616667e+00 2.90524108e-02
4.60000800e+00 1.55841108e+00 3.06635322e-02
4.61000800e+00 1.56181615e+00 3.14589446e-02
4.62000800e+00 1.56446641e+00 3.08342045e-02
4.63000800e+00 1.56672379e+00 3.00920257e-02
4.64000800e+00 1.56873203e+00 2.88253493e-02
4.65000800e+00 1.57019203e+00 2.73829617e-02
4.66000800e+00 1.57127956e+00 2.59289144e-02
4.67000800e+00 1.57208570e+00 2.45778373e-02
4.68000800e+00 1.57276991e+00 2.32004744e-02
4.69000800e+00 1.57341297e+00 2.18670243e-02
4.70000800e+00 1.57395510e+00 2.03419842e-02
4.71000800e+00 1.57419514e+00 1.85775340e-02
4.72000800e+00 1.57397941e+00 1.68056993e-02
4.73000800e+00 1.57336688e+00 1.52602610e-02
4.74000800e+00 1.57251973e+00 1.40760347e-02
4.75000800e+00 1.57171003e+00 1.31811677e-02
