2819 .False.
#  Water rich atmosphere tholin haze optical constants @ T = 300 K
#  ref: Optical properties of organic hazes in water-rich exoplanet atmospheres: Implications for observations with JWST
#  He, Chao; Radke, Michael; Moran, Sarah E.; Hörst, Sarah M.; Lewis, Nikole K.; Moses, Julianne I.; Marley, Mark S.; Kempton, Eliza M.-R.; Morley, Caroline V.; Valenti, Jeff A.; Vuitton, Véronique
# wavelength  n  k
4.10008000e-01 1.76552673e+00 7.15922442e-03
4.20008000e-01 1.73882846e+00 1.19117736e-02
4.30008000e-01 1.71954049e+00 1.18503521e-02
4.40008000e-01 1.70585606e+00 1.15039967e-02
4.50008000e-01 1.69341873e+00 1.12015222e-02
4.60008000e-01 1.68253546e+00 1.08623760e-02
4.70008000e-01 1.67192506e+00 1.04965648e-02
4.80008000e-01 1.66278153e+00 1.00981496e-02
4.90008000e-01 1.65493876e+00 9.69366515e-03
5.00008000e-01 1.64809445e+00 9.31829346e-03
5.10008000e-01 1.64205481e+00 8.96306441e-03
5.20008000e-01 1.63667707e+00 8.64832564e-03
5.30008000e-01 1.63185152e+00 8.36769802e-03
5.40008000e-01 1.62749570e+00 8.12427134e-03
5.50008000e-01 1.62355176e+00 7.91431749e-03
5.60008000e-01 1.61996525e+00 7.72451065e-03
5.70008000e-01 1.61668531e+00 7.55484216e-03
5.80008000e-01 1.61367555e+00 7.39918061e-03
5.90008000e-01 1.61090377e+00 7.25801966e-03
6.00008000e-01 1.60834202e+00 7.12986736e-03
6.10008000e-01 1.60596931e+00 7.01177415e-03
6.20008000e-01 1.60376366e+00 6.90464340e-03
6.30008000e-01 1.60171538e+00 6.80626933e-03
6.40008000e-01 1.59979705e+00 6.71154363e-03
6.50008000e-01 1.59800752e+00 6.62780761e-03
6.60008000e-01 1.59633271e+00 6.54790438e-03
6.70008000e-01 1.59475887e+00 6.46981881e-03
6.80008000e-01 1.59327844e+00 6.39706155e-03
6.90008000e-01 1.59188362e+00 6.32861607e-03
7.00008000e-01 1.59056755e+00 6.26442583e-03
7.10008000e-01 1.58932551e+00 6.20344575e-03
7.20008000e-01 1.58815140e+00 6.14496120e-03
7.30008000e-01 1.58703879e+00 6.08832893e-03
7.40008000e-01 1.58598376e+00 6.03399521e-03
7.50008000e-01 1.58498281e+00 5.98155037e-03
7.60008000e-01 1.58403090e+00 5.92868071e-03
7.70008000e-01 1.58312264e+00 5.87858607e-03
7.80008000e-01 1.58225846e+00 5.83116765e-03
7.90008000e-01 1.58143388e+00 5.78415914e-03
8.00008000e-01 1.58064723e+00 5.73803642e-03
8.10008000e-01 1.57989427e+00 5.69208807e-03
8.20008000e-01 1.57917306e+00 5.64812485e-03
8.30008000e-01 1.57848155e+00 5.60401983e-03
8.40008000e-01 1.57781725e+00 5.56252254e-03
8.50008000e-01 1.57717857e+00 5.52181103e-03
8.60008000e-01 1.57656401e+00 5.48428575e-03
8.70008000e-01 1.57597244e+00 5.44958075e-03
8.80008000e-01 1.57540435e+00 5.41733746e-03
8.90008000e-01 1.57485793e+00 5.38813854e-03
9.00008000e-01 1.57433146e+00 5.35972321e-03
9.10008000e-01 1.57382377e+00 5.33477748e-03
9.20008000e-01 1.57333470e+00 5.31368426e-03
9.30008000e-01 1.57286619e+00 5.29425285e-03
9.40008000e-01 1.57241289e+00 5.27754568e-03
9.50008000e-01 1.57197804e+00 5.26297228e-03
9.60008000e-01 1.57155969e+00 5.25186973e-03
9.70008000e-01 1.57115985e+00 5.24424490e-03
9.80008000e-01 1.57077923e+00 5.23859876e-03
9.90008000e-01 1.57042124e+00 5.23514374e-03
1.00000800e+00 1.57010376e+00 5.23039759e-03
1.01000800e+00 1.56977810e+00 5.14509016e-03
1.02000800e+00 1.56938788e+00 5.08696073e-03
1.03000800e+00 1.56908749e+00 5.09128473e-03
1.04000800e+00 1.56868278e+00 5.09561865e-03
1.05000800e+00 1.56845729e+00 5.07157295e-03
1.06000800e+00 1.56811639e+00 5.03744433e-03
1.07000800e+00 1.56782254e+00 5.05592498e-03
1.08000800e+00 1.56756078e+00 5.03497363e-03
1.09000800e+00 1.56732715e+00 5.05166398e-03
1.10000800e+00 1.56704493e+00 4.93997993e-03
1.11000800e+00 1.56678687e+00 4.96285620e-03
1.12000800e+00 1.56649737e+00 4.93777879e-03
1.13000800e+00 1.56627011e+00 4.93171988e-03
1.14000800e+00 1.56604818e+00 4.93012321e-03
1.15000800e+00 1.56579464e+00 4.91030595e-03
1.16000800e+00 1.56560139e+00 4.90443830e-03
1.17000800e+00 1.56541959e+00 4.88030343e-03
1.18000800e+00 1.56516271e+00 4.83639985e-03
1.19000800e+00 1.56495099e+00 4.84184087e-03
1.20000800e+00 1.56479115e+00 4.82326251e-03
1.21000800e+00 1.56458828e+00 4.76694879e-03
1.22000800e+00 1.56437143e+00 4.77521056e-03
1.23000800e+00 1.56418705e+00 4.77005859e-03
1.24000800e+00 1.56407001e+00 4.72458644e-03
1.25000800e+00 1.56385135e+00 4.67381767e-03
1.26000800e+00 1.56364806e+00 4.65222540e-03
1.27000800e+00 1.56347025e+00 4.66699645e-03
1.28000800e+00 1.56333292e+00 4.62198316e-03
1.29000800e+00 1.56315666e+00 4.61698377e-03
1.30000800e+00 1.56299787e+00 4.57197578e-03
1.31000800e+00 1.56283772e+00 4.56757983e-03
1.32000800e+00 1.56267832e+00 4.51435684e-03
1.33000800e+00 1.56250441e+00 4.53189400e-03
1.34000800e+00 1.56238731e+00 4.47750899e-03
1.35000800e+00 1.56223441e+00 4.46543739e-03
1.36000800e+00 1.56208324e+00 4.42111248e-03
1.37000800e+00 1.56195602e+00 4.41287687e-03
1.38000800e+00 1.56178435e+00 4.32961709e-03
1.39000800e+00 1.56161862e+00 4.34947122e-03
1.40000800e+00 1.56149805e+00 4.30344391e-03
1.41000800e+00 1.56132539e+00 4.31118275e-03
1.42000800e+00 1.56119006e+00 4.28208001e-03
1.43000800e+00 1.56108615e+00 4.28140055e-03
1.44000800e+00 1.56094156e+00 4.22986734e-03
1.45000800e+00 1.56081947e+00 4.21855098e-03
1.46000800e+00 1.56069959e+00 4.18505531e-03
1.47000800e+00 1.56055639e+00 4.16014367e-03
1.48000800e+00 1.56040584e+00 4.14867246e-03
1.49000800e+00 1.56029552e+00 4.11873920e-03
1.50000800e+00 1.56016744e+00 4.14105378e-03
1.51000800e+00 1.56008103e+00 4.10632681e-03
1.52000800e+00 1.55996273e+00 4.07023690e-03
1.53000800e+00 1.55985921e+00 3.99798602e-03
1.54000800e+00 1.55969018e+00 4.01261685e-03
1.55000800e+00 1.55959368e+00 3.98491977e-03
1.56000800e+00 1.55945926e+00 3.97350723e-03
1.57000800e+00 1.55939645e+00 3.93227402e-03
1.58000800e+00 1.55925397e+00 3.88480984e-03
1.59000800e+00 1.55912477e+00 3.86121935e-03
1.60000800e+00 1.55900573e+00 3.84555663e-03
1.61000800e+00 1.55891695e+00 3.84139562e-03
1.62000800e+00 1.55876938e+00 3.76763227e-03
1.63000800e+00 1.55868584e+00 3.80454442e-03
1.64000800e+00 1.55857518e+00 3.68711153e-03
1.65000800e+00 1.55842217e+00 3.72508402e-03
1.66000800e+00 1.55834064e+00 3.64881688e-03
1.67000800e+00 1.55817405e+00 3.66558549e-03
1.68000800e+00 1.55807845e+00 3.64102987e-03
1.69000800e+00 1.55796843e+00 3.65931797e-03
1.70000800e+00 1.55789822e+00 3.57181054e-03
1.71000800e+00 1.55771923e+00 3.60597712e-03
1.72000800e+00 1.55764797e+00 3.57557964e-03
1.73000800e+00 1.55753902e+00 3.56086581e-03
1.74000800e+00 1.55747226e+00 3.55681303e-03
1.75000800e+00 1.55734636e+00 3.49196180e-03
1.76000800e+00 1.55729165e+00 3.45534589e-03
1.77000800e+00 1.55713626e+00 3.39176649e-03
1.78000800e+00 1.55700581e+00 3.41537214e-03
1.79000800e+00 1.55693649e+00 3.39092783e-03
1.80000800e+00 1.55683626e+00 3.32444234e-03
1.81000800e+00 1.55669967e+00 3.27512406e-03
1.82000800e+00 1.55658609e+00 3.27171220e-03
1.83000800e+00 1.55648634e+00 3.21860213e-03
1.84000800e+00 1.55634882e+00 3.17527749e-03
1.85000800e+00 1.55620487e+00 3.16650663e-03
1.86000800e+00 1.55608002e+00 3.13598922e-03
1.87000800e+00 1.55600875e+00 3.15053892e-03
1.88000800e+00 1.55585286e+00 3.07629317e-03
1.89000800e+00 1.55574894e+00 3.07285630e-03
1.90000800e+00 1.55560960e+00 3.04594097e-03
1.91000800e+00 1.55550083e+00 3.04050046e-03
1.92000800e+00 1.55538081e+00 2.96241454e-03
1.93000800e+00 1.55519718e+00 2.97082236e-03
1.94000800e+00 1.55508257e+00 3.00838345e-03
1.95000800e+00 1.55503361e+00 3.00249664e-03
1.96000800e+00 1.55486949e+00 2.90187809e-03
1.97000800e+00 1.55473389e+00 2.99541145e-03
1.98000800e+00 1.55466655e+00 2.92450008e-03
1.99000800e+00 1.55452593e+00 2.94954437e-03
2.00000800e+00 1.55444646e+00 2.91401200e-03
2.01000800e+00 1.55433416e+00 2.89691476e-03
2.02000800e+00 1.55423002e+00 2.83700006e-03
2.03000800e+00 1.55408951e+00 2.80752251e-03
2.04000800e+00 1.55394118e+00 2.78018346e-03
2.05000800e+00 1.55381841e+00 2.72562405e-03
2.06000800e+00 1.55364723e+00 2.80534038e-03
2.07000800e+00 1.55361939e+00 2.72562305e-03
2.08000800e+00 1.55341997e+00 2.70481009e-03
2.09000800e+00 1.55332025e+00 2.75331392e-03
2.10000800e+00 1.55318643e+00 2.68426062e-03
2.11000800e+00 1.55308241e+00 2.64549780e-03
2.12000800e+00 1.55295186e+00 2.65074874e-03
2.13000800e+00 1.55279201e+00 2.55590252e-03
2.14000800e+00 1.55261076e+00 2.57745503e-03
2.15000800e+00 1.55248681e+00 2.61448244e-03
2.16000800e+00 1.55234152e+00 2.57890723e-03
2.17000800e+00 1.55227661e+00 2.61821916e-03
2.18000800e+00 1.55212713e+00 2.49262257e-03
2.19000800e+00 1.55192796e+00 2.53300631e-03
2.20000800e+00 1.55183609e+00 2.57197716e-03
2.21000800e+00 1.55178717e+00 2.49060054e-03
2.22000800e+00 1.55152175e+00 2.39329601e-03
2.23000800e+00 1.55135084e+00 2.38416355e-03
2.24000800e+00 1.55115171e+00 2.48759711e-03
2.25000800e+00 1.55100048e+00 2.41359461e-03
2.26000800e+00 1.55082368e+00 2.51806119e-03
2.27000800e+00 1.55075251e+00 2.59434351e-03
2.28000800e+00 1.55066188e+00 2.53435268e-03
2.29000800e+00 1.55053080e+00 2.58418006e-03
2.30000800e+00 1.55047033e+00 2.53187170e-03
2.31000800e+00 1.55034739e+00 2.47946541e-03
2.32000800e+00 1.55021132e+00 2.42175311e-03
2.33000800e+00 1.55010416e+00 2.36786370e-03
2.34000800e+00 1.54988091e+00 2.31663299e-03
2.35000800e+00 1.54975839e+00 2.28885353e-03
2.36000800e+00 1.54957406e+00 2.19788629e-03
2.37000800e+00 1.54939865e+00 2.17722987e-03
2.38000800e+00 1.54919858e+00 2.14213860e-03
2.39000800e+00 1.54902387e+00 2.10539550e-03
2.40000800e+00 1.54882601e+00 2.10140222e-03
2.41000800e+00 1.54865440e+00 2.00735177e-03
2.42000800e+00 1.54841675e+00 2.02264832e-03
2.43000800e+00 1.54824936e+00 1.98380697e-03
2.44000800e+00 1.54798831e+00 1.97296386e-03
2.45000800e+00 1.54783457e+00 1.95262450e-03
2.46000800e+00 1.54763226e+00 1.95596719e-03
2.47000800e+00 1.54740570e+00 1.90895103e-03
2.48000800e+00 1.54725494e+00 1.89964974e-03
2.49000800e+00 1.54704109e+00 1.83450852e-03
2.50000800e+00 1.54681450e+00 1.83572362e-03
2.51000800e+00 1.54664565e+00 1.75141444e-03
2.52000800e+00 1.54638050e+00 1.65711081e-03
2.53000800e+00 1.54614302e+00 1.62518483e-03
2.54000800e+00 1.54587317e+00 1.52662728e-03
2.55000800e+00 1.54557906e+00 1.48969412e-03
2.56000800e+00 1.54533257e+00 1.40698738e-03
2.57000800e+00 1.54496559e+00 1.35763975e-03
2.58000800e+00 1.54469069e+00 1.30955390e-03
2.59000800e+00 1.54432376e+00 1.27493322e-03
2.60000800e+00 1.54402949e+00 1.26285872e-03
2.61000800e+00 1.54371167e+00 1.19046023e-03
2.62000800e+00 1.54332290e+00 1.14515296e-03
2.63000800e+00 1.54298902e+00 1.11642498e-03
2.64000800e+00 1.54263114e+00 1.05228075e-03
2.65000800e+00 1.54222021e+00 9.44211712e-04
2.66000800e+00 1.54177082e+00 8.96104991e-04
2.67000800e+00 1.54131484e+00 8.24482115e-04
2.68000800e+00 1.54079133e+00 7.85117531e-04
2.69000800e+00 1.54029337e+00 7.80925804e-04
2.70000800e+00 1.53975123e+00 7.16814915e-04
2.71000800e+00 1.53921040e+00 7.41884667e-04
2.72000800e+00 1.53860613e+00 6.56053253e-04
2.73000800e+00 1.53794663e+00 6.79478828e-04
2.74000800e+00 1.53729628e+00 6.83102119e-04
2.75000800e+00 1.53654423e+00 6.70858259e-04
2.76000800e+00 1.53579605e+00 6.84670147e-04
2.77000800e+00 1.53488639e+00 6.93145862e-04
2.78000800e+00 1.53395532e+00 7.88685360e-04
2.79000800e+00 1.53293222e+00 8.79675323e-04
2.80000800e+00 1.53177959e+00 1.03907542e-03
2.81000800e+00 1.53049538e+00 1.26442969e-03
2.82000800e+00 1.52907807e+00 1.58280514e-03
2.83000800e+00 1.52738363e+00 2.09347563e-03
2.84000800e+00 1.52531753e+00 3.15614611e-03
2.85000800e+00 1.52389394e+00 4.66723599e-03
2.86000800e+00 1.52216131e+00 6.41905324e-03
2.87000800e+00 1.52105561e+00 8.59083982e-03
2.88000800e+00 1.52039083e+00 1.09301297e-02
2.89000800e+00 1.51999065e+00 1.30908818e-02
2.90000800e+00 1.51987830e+00 1.50959638e-02
2.91000800e+00 1.51970122e+00 1.72299737e-02
2.92000800e+00 1.51975302e+00 1.92262086e-02
2.93000800e+00 1.51983707e+00 2.14327490e-02
2.94000800e+00 1.52023502e+00 2.36670650e-02
2.95000800e+00 1.52072653e+00 2.59814282e-02
2.96000800e+00 1.52170780e+00 2.84679568e-02
2.97000800e+00 1.52314275e+00 3.07699247e-02
2.98000800e+00 1.52496105e+00 3.29166694e-02
2.99000800e+00 1.52722609e+00 3.46132333e-02
3.00000800e+00 1.52967015e+00 3.57233849e-02
3.01000800e+00 1.53203085e+00 3.63005533e-02
3.02000800e+00 1.53429314e+00 3.64742063e-02
3.03000800e+00 1.53616851e+00 3.62837931e-02
3.04000800e+00 1.53776576e+00 3.60542590e-02
3.05000800e+00 1.53917647e+00 3.56021772e-02
3.06000800e+00 1.54028941e+00 3.53377523e-02
3.07000800e+00 1.54133148e+00 3.49471080e-02
3.08000800e+00 1.54221935e+00 3.47172196e-02
3.09000800e+00 1.54301288e+00 3.45717902e-02
3.10000800e+00 1.54392293e+00 3.45550153e-02
3.11000800e+00 1.54488086e+00 3.44536818e-02
3.12000800e+00 1.54595854e+00 3.44452606e-02
3.13000800e+00 1.54724160e+00 3.41392569e-02
3.14000800e+00 1.54844802e+00 3.36563348e-02
3.15000800e+00 1.54955621e+00 3.27852273e-02
3.16000800e+00 1.55032486e+00 3.18836176e-02
3.17000800e+00 1.55087390e+00 3.09130646e-02
3.18000800e+00 1.55123358e+00 3.00505218e-02
3.19000800e+00 1.55144497e+00 2.92280896e-02
3.20000800e+00 1.55154152e+00 2.84988431e-02
3.21000800e+00 1.55151567e+00 2.79263124e-02
3.22000800e+00 1.55152457e+00 2.73959587e-02
3.23000800e+00 1.55146473e+00 2.70025540e-02
3.24000800e+00 1.55147099e+00 2.66353769e-02
3.25000800e+00 1.55145629e+00 2.62701863e-02
3.26000800e+00 1.55145307e+00 2.59044320e-02
3.27000800e+00 1.55135858e+00 2.54874376e-02
3.28000800e+00 1.55125261e+00 2.50997225e-02
3.29000800e+00 1.55099192e+00 2.46349812e-02
3.30000800e+00 1.55042400e+00 2.41498772e-02
3.31000800e+00 1.54964587e+00 2.39151188e-02
3.32000800e+00 1.54853569e+00 2.38965305e-02
3.33000800e+00 1.54721297e+00 2.45334823e-02
3.34000800e+00 1.54589017e+00 2.59515701e-02
3.35000800e+00 1.54527892e+00 2.84927154e-02
3.36000800e+00 1.54628311e+00 3.12971282e-02
3.37000800e+00 1.54869343e+00 3.31902513e-02
3.38000800e+00 1.55127260e+00 3.32978659e-02
3.39000800e+00 1.55238428e+00 3.28440117e-02
3.40000800e+00 1.55328789e+00 3.36636374e-02
3.41000800e+00 1.55583845e+00 3.43840309e-02
3.42000800e+00 1.55855739e+00 3.32514319e-02
3.43000800e+00 1.56003377e+00 3.14089754e-02
3.44000800e+00 1.56065338e+00 2.97043699e-02
3.45000800e+00 1.56074579e+00 2.83867281e-02
3.46000800e+00 1.56040856e+00 2.77293667e-02
3.47000800e+00 1.56047886e+00 2.80140809e-02
3.48000800e+00 1.56201599e+00 2.83472175e-02
3.49000800e+00 1.56384315e+00 2.70720620e-02
3.50000800e+00 1.56469875e+00 2.52646250e-02
3.51000800e+00 1.56496972e+00 2.35012267e-02
3.52000800e+00 1.56483765e+00 2.19796578e-02
3.53000800e+00 1.56444022e+00 2.07268776e-02
3.54000800e+00 1.56403155e+00 1.97611562e-02
3.55000800e+00 1.56363134e+00 1.89286205e-02
3.56000800e+00 1.56325619e+00 1.82104032e-02
3.57000800e+00 1.56286319e+00 1.75718739e-02
3.58000800e+00 1.56247190e+00 1.69781482e-02
3.59000800e+00 1.56211645e+00 1.65015091e-02
3.60000800e+00 1.56174936e+00 1.60508763e-02
3.61000800e+00 1.56143896e+00 1.56698215e-02
3.62000800e+00 1.56116312e+00 1.53142328e-02
3.63000800e+00 1.56089107e+00 1.49709746e-02
3.64000800e+00 1.56066007e+00 1.46633924e-02
3.65000800e+00 1.56049367e+00 1.43503805e-02
3.66000800e+00 1.56033362e+00 1.39469090e-02
3.67000800e+00 1.56008942e+00 1.35810084e-02
3.68000800e+00 1.55985336e+00 1.32479078e-02
3.69000800e+00 1.55967095e+00 1.29188749e-02
3.70000800e+00 1.55939360e+00 1.25693114e-02
3.71000800e+00 1.55921320e+00 1.22713440e-02
3.72000800e+00 1.55894547e+00 1.19101663e-02
3.73000800e+00 1.55870974e+00 1.16438465e-02
3.74000800e+00 1.55847853e+00 1.13160100e-02
3.75000800e+00 1.55821844e+00 1.10228277e-02
3.76000800e+00 1.55796848e+00 1.07577317e-02
3.77000800e+00 1.55772154e+00 1.04458545e-02
3.78000800e+00 1.55746073e+00 1.01785150e-02
3.79000800e+00 1.55718490e+00 9.88260018e-03
3.80000800e+00 1.55685165e+00 9.63499288e-03
3.81000800e+00 1.55655856e+00 9.40508685e-03
3.82000800e+00 1.55630735e+00 9.20737630e-03
3.83000800e+00 1.55601712e+00 8.96154387e-03
3.84000800e+00 1.55572575e+00 8.78120627e-03
3.85000800e+00 1.55545640e+00 8.55670131e-03
3.86000800e+00 1.55515473e+00 8.38450725e-03
3.87000800e+00 1.55488468e+00 8.15959474e-03
3.88000800e+00 1.55460682e+00 8.00269731e-03
3.89000800e+00 1.55426750e+00 7.80033703e-03
3.90000800e+00 1.55401687e+00 7.65996104e-03
3.91000800e+00 1.55370916e+00 7.48409140e-03
3.92000800e+00 1.55342453e+00 7.34026563e-03
3.93000800e+00 1.55313440e+00 7.21480739e-03
3.94000800e+00 1.55289651e+00 7.03489786e-03
3.95000800e+00 1.55256593e+00 6.90893104e-03
3.96000800e+00 1.55230665e+00 6.74365409e-03
3.97000800e+00 1.55201592e+00 6.61255291e-03
3.98000800e+00 1.55170566e+00 6.45188185e-03
3.99000800e+00 1.55140037e+00 6.34991072e-03
4.00000800e+00 1.55111481e+00 6.22109044e-03
4.01000800e+00 1.55081356e+00 6.11996516e-03
4.02000800e+00 1.55055647e+00 5.98872624e-03
4.03000800e+00 1.55023383e+00 5.87917259e-03
4.04000800e+00 1.54994466e+00 5.76103021e-03
4.05000800e+00 1.54962769e+00 5.64560413e-03
4.06000800e+00 1.54934863e+00 5.57406744e-03
4.07000800e+00 1.54904529e+00 5.43015925e-03
4.08000800e+00 1.54873280e+00 5.38713154e-03
4.09000800e+00 1.54848633e+00 5.25076882e-03
4.10000800e+00 1.54816789e+00 5.13950640e-03
4.11000800e+00 1.54783526e+00 5.03264849e-03
4.12000800e+00 1.54754226e+00 4.94126165e-03
4.13000800e+00 1.54718284e+00 4.84219557e-03
4.14000800e+00 1.54688781e+00 4.77708433e-03
4.15000800e+00 1.54655299e+00 4.66845656e-03
4.16000800e+00 1.54624147e+00 4.59298321e-03
4.17000800e+00 1.54587341e+00 4.53778430e-03
4.18000800e+00 1.54560167e+00 4.47155207e-03
4.19000800e+00 1.54531436e+00 4.38010059e-03
4.20000800e+00 1.54504210e+00 4.26165187e-03
4.21000800e+00 1.54472332e+00 4.03463358e-03
4.22000800e+00 1.54429114e+00 3.86870253e-03
4.23000800e+00 1.54380370e+00 3.70772758e-03
4.24000800e+00 1.54325643e+00 3.62687640e-03
4.25000800e+00 1.54273498e+00 3.72467222e-03
4.26000800e+00 1.54249071e+00 3.77224601e-03
4.27000800e+00 1.54206163e+00 3.61106009e-03
4.28000800e+00 1.54160060e+00 3.59058441e-03
4.29000800e+00 1.54113320e+00 3.56936360e-03
4.30000800e+00 1.54066020e+00 3.54992625e-03
4.31000800e+00 1.54022428e+00 3.59266335e-03
4.32000800e+00 1.53976697e+00 3.58860374e-03
4.33000800e+00 1.53929314e+00 3.53863307e-03
4.34000800e+00 1.53879238e+00 3.57419195e-03
4.35000800e+00 1.53831053e+00 3.57933845e-03
4.36000800e+00 1.53779831e+00 3.55235616e-03
4.37000800e+00 1.53724168e+00 3.49694588e-03
4.38000800e+00 1.53655404e+00 3.48539618e-03
4.39000800e+00 1.53586786e+00 3.50068706e-03
4.40000800e+00 1.53503049e+00 3.57108876e-03
4.41000800e+00 1.53413448e+00 3.71568616e-03
4.42000800e+00 1.53313607e+00 4.09798427e-03
4.43000800e+00 1.53216850e+00 4.71332675e-03
4.44000800e+00 1.53139206e+00 5.63479415e-03
4.45000800e+00 1.53111135e+00 6.63072645e-03
4.46000800e+00 1.53117695e+00 7.12095568e-03
4.47000800e+00 1.53092198e+00 7.14008818e-03
4.48000800e+00 1.53022901e+00 7.17493006e-03
4.49000800e+00 1.52904958e+00 7.53323504e-03
4.50000800e+00 1.52789020e+00 8.43829165e-03
4.51000800e+00 1.52705572e+00 9.65136480e-03
4.52000800e+00 1.52645060e+00 1.08762049e-02
4.53000800e+00 1.52580758e+00 1.23027336e-02
4.54000800e+00 1.52530051e+00 1.39438567e-02
4.55000800e+00 1.52501956e+00 1.59836628e-02
4.56000800e+00 1.52547722e+00 1.82626078e-02
4.57000800e+00 1.52647608e+00 2.03777269e-02
4.58000800e+00 1.52792365e+00 2.22044855e-02
4.59000800e+00 1.52968433e+00 2.37099378e-02
4.60000800e+00 1.53172758e+00 2.49331731e-02
4.61000800e+00 1.53494798e+00 2.58911997e-02
4.62000800e+00 1.53740418e+00 2.48822897e-02
4.63000800e+00 1.53929242e+00 2.39806284e-02
4.64000800e+00 1.54108014e+00 2.27614535e-02
4.65000800e+00 1.54227520e+00 2.13197932e-02
4.66000800e+00 1.54308629e+00 1.98593601e-02
4.67000800e+00 1.54368383e+00 1.84722060e-02
4.68000800e+00 1.54410009e+00 1.71447884e-02
4.69000800e+00 1.54441148e+00 1.58330773e-02
4.70000800e+00 1.54460182e+00 1.44035243e-02
4.71000800e+00 1.54448472e+00 1.28026791e-02
4.72000800e+00 1.54386300e+00 1.13791871e-02
4.73000800e+00 1.54290433e+00 1.02351981e-02
4.74000800e+00 1.54189112e+00 9.68430452e-03
4.75000800e+00 1.54112700e+00 9.59498711e-03
