6948 .False.
#  Refractive index of Titan Tholins
#  ref: Optical Constants of Titan Haze Analogue from 0.4 to 3.5 microns: Determined Using Vacuum Spectroscopy
#  He C., Horst S.M., Radke M., Yant M.
# wavelength  n  k
0.40006 1.7565093 0.0155129
0.40012 1.7609151 0.0155993
0.40019 1.7640765 0.0157268
0.40025 1.7655394 0.0158321
0.40031 1.7663651 0.0159409
0.40037 1.7668811 0.0160528
0.40043 1.7671982 0.0161162
0.40049 1.7673259 0.0161546
0.40056 1.7673229 0.0162522
0.40062 1.7673093 0.0164109
0.40068 1.767335 0.0165266
0.40074 1.7673342 0.0165314
0.4008 1.767243 0.0164733
0.40087 1.7670758 0.0164035
0.40093 1.7668577 0.0163131
0.40099 1.7665735 0.0161881
0.40105 1.7661968 0.0160546
0.40111 1.7657375 0.0159637
0.40118 1.7652578 0.0159442
0.40124 1.7647994 0.0159374
0.4013 1.7643101 0.0158912
0.40136 1.763751 0.0158753
0.40143 1.7631738 0.0159342
0.40149 1.7626082 0.016024
0.40155 1.7620492 0.0161571
0.40161 1.7615352 0.0163492
0.40167 1.7611192 0.01656
0.40174 1.7607875 0.0166971
0.4018 1.7604362 0.0167213
0.40186 1.7600101 0.0167381
0.40192 1.759606 0.0168179
0.40199 1.7592582 0.0168247
0.40205 1.7588579 0.016735
0.40211 1.7583751 0.0166573
0.40217 1.7578661 0.0166069
0.40223 1.7573455 0.0165503
0.4023 1.7567686 0.016475
0.40236 1.7561355 0.016466
0.40242 1.7555299 0.0165365
0.40248 1.7549697 0.0165998
0.40255 1.7543987 0.0166516
0.40261 1.7538363 0.0167628
0.40267 1.7533533 0.0168974
0.40273 1.7529404 0.0169675
0.4028 1.7525186 0.0169469
0.40286 1.752045 0.0168926
0.40292 1.7515412 0.0168334
0.40299 1.7510044 0.0167388
0.40305 1.7503716 0.0166178
0.40311 1.7496605 0.0165941
0.40317 1.7489934 0.0166685
0.40324 1.7483627 0.0167014
0.4033 1.7476855 0.016738
0.40336 1.7469872 0.0168466
0.40342 1.7463187 0.0170097
0.40349 1.7456917 0.0172033
0.40355 1.7450945 0.0174151
0.40361 1.7445533 0.0176798
0.40368 1.7441275 0.0179541
0.40374 1.743791 0.0181339
0.4038 1.7434432 0.0182077
0.40386 1.7430602 0.0182609
0.40393 1.7426633 0.0182818
0.40399 1.7422239 0.0182694
0.40405 1.7417409 0.0182826
0.40412 1.7412701 0.0183389
0.40418 1.7408455 0.0183914
0.40424 1.7404538 0.0183993
0.4043 1.74004 0.0183317
0.40437 1.7395415 0.0182313
0.40443 1.7389722 0.0181872
0.40449 1.7384063 0.0182181
0.40456 1.7378955 0.0182853
0.40462 1.7374456 0.0183355
0.40468 1.7370181 0.0183294
0.40475 1.736562 0.0182776
0.40481 1.736076 0.0182313
0.40487 1.7355725 0.0181799
0.40494 1.735065 0.0181512
0.405 1.7345984 0.0181269
0.40506 1.7341526 0.0180246
0.40513 1.7336297 0.0178357
0.40519 1.7329801 0.0176588
0.40525 1.7322571 0.0175747
0.40532 1.7315398 0.0175774
0.40538 1.7308364 0.0176118
0.40544 1.7301479 0.0177122
0.40551 1.7295327 0.0178708
0.40557 1.729014 0.018006
0.40563 1.728495 0.0180391
0.4057 1.7278999 0.018082
0.40576 1.7273161 0.0182242
0.40582 1.7269568 0.0183854
0.40589 1.726467 0.018463
0.40595 1.7259601 0.0184434
0.40601 1.7253877 0.0183939
0.40608 1.7247541 0.0183537
0.40614 1.7240713 0.0183603
0.40621 1.7233984 0.0184622
0.40627 1.72283 0.0186257
0.40633 1.7223623 0.0187162
0.4064 1.7218715 0.0186947
0.40646 1.721288 0.0186667
0.40652 1.7206576 0.0187118
0.40659 1.7200537 0.018835
0.40665 1.7195361 0.0190083
0.40672 1.7191303 0.0191554
0.40678 1.7187812 0.0191909
0.40684 1.7183513 0.0190988
0.40691 1.7177776 0.0190422
0.40697 1.7171898 0.019143
0.40703 1.7167362 0.0193129
0.4071 1.7163882 0.01939
0.40716 1.7160094 0.019363
0.40723 1.7155706 0.0193543
0.40729 1.7151488 0.0193818
0.40735 1.7147455 0.0193728
0.40742 1.7143266 0.0193586
0.40748 1.7139186 0.0193602
0.40755 1.7135447 0.0193393
0.40761 1.7131358 0.0192382
0.40767 1.7126223 0.0191563
0.40774 1.7121033 0.0192178
0.4078 1.7117347 0.019344
0.40787 1.7114866 0.0193377
0.40793 1.7111863 0.0191732
0.408 1.7107514 0.0189826
0.40806 1.7102369 0.0188572
0.40812 1.7097015 0.0187864
0.40819 1.7091787 0.018775
0.40825 1.7087075 0.0187968
0.40832 1.7082906 0.0187941
0.40838 1.7078708 0.0187265
0.40845 1.7073779 0.0186291
0.40851 1.7068184 0.0185979
0.40857 1.7062866 0.0186655
0.40864 1.7058369 0.0187506
0.4087 1.7054373 0.0187976
0.40877 1.7050537 0.0188092
0.40883 1.7046516 0.0187706
0.4089 1.704195 0.0187185
0.40896 1.7036924 0.0187004
0.40903 1.7031809 0.0187334
0.40909 1.7026927 0.0188045
0.40915 1.7022265 0.0188816
0.40922 1.701759 0.0189678
0.40928 1.7012916 0.0190934
0.40935 1.70087 0.0192777
0.40941 1.7005201 0.0194688
0.40948 1.7002351 0.019654
0.40954 1.7000316 0.019817
0.40961 1.6998892 0.0198886
0.40967 1.69973 0.0198523
0.40974 1.6995099 0.0197662
0.4098 1.6992257 0.0196583
0.40987 1.6988962 0.0195702
0.40993 1.6985449 0.0194906
0.41 1.6981743 0.019421
0.41006 1.6977826 0.0193568
0.41013 1.6973677 0.019308
0.41019 1.6969129 0.0192711
0.41026 1.6964228 0.0193062
0.41032 1.6959684 0.0194394
0.41039 1.6956129 0.0196192
0.41045 1.6953629 0.0197739
0.41052 1.6951698 0.0198455
0.41058 1.6949512 0.0198288
0.41065 1.6946728 0.0198011
0.41071 1.6943722 0.0198029
0.41078 1.6940928 0.0198234
0.41084 1.6938397 0.019824
0.41091 1.693597 0.0197923
0.41097 1.6933278 0.0197072
0.41104 1.6929904 0.0196049
0.4111 1.6925767 0.0195372
0.41117 1.6921475 0.0195727
0.41123 1.6917967 0.0196762
0.4113 1.6915225 0.0197392
0.41136 1.6912392 0.0197425
0.41143 1.6909168 0.0197594
0.41149 1.6906107 0.0198247
0.41156 1.6903504 0.0198808
0.41162 1.6901035 0.0199065
0.41169 1.6898584 0.0199247
0.41175 1.6896224 0.0199269
0.41182 1.6893742 0.0198979
0.41188 1.6890982 0.0198694
0.41195 1.6888146 0.0198594
0.41202 1.6885416 0.0198547
0.41208 1.6882699 0.0198373
0.41215 1.6879932 0.0198219
0.41221 1.6877154 0.0198005
0.41228 1.6874104 0.0197659
0.41234 1.6870879 0.0197769
0.41241 1.6868076 0.0198238
0.41247 1.6865704 0.0198344
0.41254 1.6863117 0.0197927
0.41261 1.6859963 0.0197587
0.41267 1.6856783 0.0197895
0.41274 1.6854041 0.0198267
0.4128 1.685127 0.0198271
0.41287 1.6848199 0.0198556
0.41293 1.6845563 0.0199472
0.413 1.6843617 0.0200002
0.41307 1.6841613 0.0199883
0.41313 1.6839296 0.019977
0.4132 1.683695 0.0199722
0.41326 1.6834631 0.0199598
0.41333 1.6832188 0.0199353
0.4134 1.6829552 0.0199221
0.41346 1.6827093 0.0199434
0.41353 1.6825112 0.0199475
0.41359 1.6822989 0.0198728
0.41366 1.6820083 0.0197894
0.41373 1.6816698 0.0197654
0.41379 1.6813385 0.0198034
0.41386 1.6810573 0.0198891
0.41392 1.6808576 0.0199782
0.41399 1.6807102 0.0199934
0.41406 1.6805341 0.0199256
0.41412 1.6802726 0.019829
0.41419 1.6799349 0.019784
0.41425 1.6795973 0.0198312
0.41432 1.679323 0.0199221
0.41439 1.6791102 0.019999
0.41445 1.6789266 0.0200376
0.41452 1.6787371 0.0200355
0.41459 1.6785029 0.0200086
0.41465 1.6782338 0.0200265
0.41472 1.6779851 0.0200911
0.41478 1.6777843 0.020171
0.41485 1.6776312 0.0202353
0.41492 1.6775101 0.0202618
0.41498 1.6773902 0.0202345
0.41505 1.6772382 0.0201688
0.41512 1.6770359 0.0200904
0.41518 1.67679 0.0200422
0.41525 1.6765565 0.0200535
0.41532 1.6763762 0.0200689
0.41538 1.676228 0.020044
0.41545 1.676069 0.0199697
0.41552 1.6758715 0.0198694
0.41558 1.6756273 0.0197654
0.41565 1.6753454 0.0196841
0.41572 1.6750439 0.0196337
0.41578 1.6747455 0.0196169
0.41585 1.6744585 0.0196082
0.41592 1.6741513 0.0195931
0.41598 1.6738103 0.0196253
0.41605 1.6734978 0.019745
0.41612 1.6732768 0.0198997
0.41618 1.6731377 0.0200163
0.41625 1.6730298 0.0200717
0.41632 1.6729099 0.0200779
0.41638 1.6727747 0.0200733
0.41645 1.6726312 0.0200493
0.41652 1.6724725 0.0200155
0.41658 1.6723136 0.0199857
0.41665 1.6721536 0.0199278
0.41672 1.6719583 0.0198476
0.41679 1.671728 0.0197882
0.41685 1.6714914 0.0197548
0.41692 1.6712616 0.0197336
0.41699 1.671041 0.0197185
0.41705 1.6708248 0.0196972
0.41712 1.6706037 0.0196743
0.41719 1.6703827 0.0196576
0.41725 1.6701682 0.0196388
0.41732 1.6699573 0.0196069
0.41739 1.6697247 0.0195479
0.41746 1.6694422 0.0194902
0.41752 1.6691316 0.019482
0.41759 1.6688197 0.019503
0.41766 1.6684994 0.0195573
0.41773 1.6681998 0.0196793
0.41779 1.6679776 0.0198439
0.41786 1.6678407 0.0199788
0.41793 1.6677297 0.0200384
0.41799 1.6675825 0.0200526
0.41806 1.6673951 0.0200797
0.41813 1.6672047 0.0201398
0.4182 1.667035 0.0202167
0.41826 1.6668987 0.0203042
0.41833 1.666805 0.0203762
0.4184 1.6667291 0.0204002
0.41847 1.6666316 0.0203869
0.41853 1.6665134 0.0203768
0.4186 1.666389 0.0203606
0.41867 1.6662538 0.0203429
0.41874 1.6661261 0.0203382
0.41881 1.666009 0.02031
0.41887 1.6658714 0.0202582
0.41894 1.6657075 0.0202159
0.41901 1.6655415 0.020192
0.41908 1.6653874 0.0201686
0.41914 1.6652281 0.0201236
0.41921 1.6650338 0.0200742
0.41928 1.6648216 0.0200675
0.41935 1.6646338 0.0200929
0.41941 1.6644767 0.0201154
0.41948 1.664339 0.0201296
0.41955 1.6642157 0.0201259
0.41962 1.6640879 0.0200954
0.41969 1.663944 0.020057
0.41975 1.6637857 0.020016
0.41982 1.6636149 0.0199813
0.41989 1.6634452 0.0199609
0.41996 1.6632835 0.0199375
0.42003 1.6631211 0.0199072
0.42009 1.6629547 0.0198724
0.42016 1.6627706 0.0198248
0.42023 1.6625521 0.0197906
0.4203 1.6623327 0.0198113
0.42037 1.6621553 0.0198557
0.42044 1.6620171 0.0198855
0.4205 1.6618912 0.019886
0.42057 1.6617521 0.0198668
0.42064 1.6616063 0.0198597
0.42071 1.6614836 0.0198553
0.42078 1.661369 0.0198102
0.42084 1.6612269 0.0197414
0.42091 1.6610543 0.0196749
0.42098 1.6608644 0.0196216
0.42105 1.6606732 0.0195818
0.42112 1.6604732 0.0195321
0.42119 1.6602467 0.0194937
0.42125 1.6600172 0.0194923
0.42132 1.6597985 0.0194988
0.42139 1.6595795 0.0195171
0.42146 1.6593717 0.019561
0.42153 1.6591915 0.0196146
0.4216 1.6590443 0.019663
0.42167 1.658906 0.0196692
0.42173 1.6587177 0.0196478
0.4218 1.6584886 0.0196886
0.42187 1.6583087 0.0198051
0.42194 1.6582159 0.0199069
0.42201 1.6581528 0.0199392
0.42208 1.6580552 0.0199286
0.42215 1.6579253 0.0199379
0.42222 1.6578114 0.0199761
0.42228 1.6577244 0.0199996
0.42235 1.6576448 0.0200088
0.42242 1.6575837 0.0200146
0.42249 1.6575412 0.01998
0.42256 1.6574738 0.0198915
0.42263 1.6573454 0.0197888
0.4227 1.6571825 0.0197283
0.42277 1.6570337 0.0196962
0.42284 1.6568974 0.0196518
0.4229 1.6567511 0.0196021
0.42297 1.6566001 0.0195624
0.42304 1.6564519 0.0195223
0.42311 1.6563016 0.0194785
0.42318 1.6561439 0.0194337
0.42325 1.6559856 0.0193958
0.42332 1.6558266 0.0193486
0.42339 1.6556476 0.0192928
0.42346 1.65544 0.0192541
0.42353 1.6552281 0.0192588
0.4236 1.6550547 0.0193001
0.42366 1.6549345 0.0193278
0.42373 1.654834 0.0193072
0.4238 1.6547044 0.0192433
0.42387 1.6545316 0.0191848
0.42394 1.6543401 0.0191511
0.42401 1.6541506 0.0191389
0.42408 1.6539793 0.0191408
0.42415 1.6538262 0.0191278
0.42422 1.6536576 0.0190848
0.42429 1.653444 0.0190433
0.42436 1.6532013 0.0190502
0.42443 1.6529825 0.0191151
0.4245 1.652817 0.0191926
0.42457 1.6526828 0.0192444
0.42464 1.6525444 0.0192772
0.42471 1.6524035 0.0193242
0.42478 1.6522845 0.0193822
0.42484 1.6521975 0.0194322
0.42491 1.6521312 0.0194525
0.42498 1.6520677 0.0194406
0.42505 1.6519813 0.0193929
0.42512 1.6518564 0.0193434
0.42519 1.6517166 0.0193209
0.42526 1.6515945 0.019313
0.42533 1.6514883 0.0192859
0.4254 1.6513704 0.0192326
0.42547 1.6512283 0.0191744
0.42554 1.6510597 0.0191163
0.42561 1.6508698 0.0190809
0.42568 1.6506793 0.0190704
0.42575 1.6504966 0.0190727
0.42582 1.6503215 0.0190833
0.42589 1.6501542 0.0190997
0.42596 1.6499938 0.0191175
0.42603 1.6498363 0.0191346
0.4261 1.6496737 0.0191522
0.42617 1.6495087 0.0191873
0.42624 1.6493668 0.0192448
0.42631 1.6492554 0.0192883
0.42638 1.6491431 0.019304
0.42645 1.6490156 0.0193223
0.42652 1.6488914 0.019356
0.42659 1.6487857 0.019392
0.42666 1.6486963 0.0194155
0.42673 1.6486041 0.0194152
0.4268 1.6485003 0.0194134
0.42687 1.6483853 0.0194071
0.42694 1.6482578 0.0194148
0.42701 1.648143 0.0194505
0.42708 1.6480685 0.0194918
0.42715 1.6480266 0.0194982
0.42723 1.6479823 0.0194575
0.4273 1.647901 0.0193825
0.42737 1.6477721 0.0193136
0.42744 1.6476283 0.0192826
0.42751 1.6475089 0.0192694
0.42758 1.6474019 0.019227
0.42765 1.6472702 0.0191649
0.42772 1.6471053 0.0191107
0.42779 1.6469262 0.0190852
0.42786 1.6467488 0.0190753
0.42793 1.6465698 0.0190783
0.428 1.6463925 0.0191033
0.42807 1.6462363 0.0191532
0.42814 1.6461113 0.0192045
0.42821 1.6460026 0.0192407
0.42828 1.6459044 0.0192758
0.42835 1.6458318 0.0193031
0.42843 1.645771 0.0192871
0.4285 1.6456778 0.0192295
0.42857 1.6455305 0.0191739
0.42864 1.6453553 0.019161
0.42871 1.645198 0.0191876
0.42878 1.6450685 0.0192105
0.42885 1.6449391 0.0192178
0.42892 1.6447965 0.01923
0.42899 1.6446488 0.0192591
0.42906 1.6445044 0.0193067
0.42913 1.6443773 0.0193816
0.42921 1.6442977 0.0194768
0.42928 1.6442757 0.0195472
0.42935 1.6442763 0.0195553
0.42942 1.6442478 0.0195095
0.42949 1.6441696 0.0194536
0.42956 1.6440627 0.0194231
0.42963 1.6439603 0.0194166
0.4297 1.6438755 0.0194144
0.42978 1.6438054 0.019402
0.42985 1.6437389 0.0193692
0.42992 1.6436593 0.0193148
0.42999 1.6435521 0.0192501
0.43006 1.6434126 0.0191952
0.43013 1.643261 0.0191752
0.4302 1.6431303 0.019182
0.43027 1.6430255 0.0191802
0.43035 1.6429218 0.0191578
0.43042 1.6428053 0.0191306
0.43049 1.6426813 0.0191079
0.43056 1.6425486 0.0190826
0.43063 1.6423954 0.0190658
0.4307 1.6422444 0.0190888
0.43077 1.6421316 0.0191272
0.43085 1.6420376 0.0191336
0.43092 1.6419316 0.0191321
0.43099 1.6418333 0.0191428
0.43106 1.6417452 0.0191285
0.43113 1.6416276 0.0190881
0.4312 1.6414691 0.0190719
0.43128 1.6413165 0.0191104
0.43135 1.6412129 0.0191662
0.43142 1.6411383 0.0191856
0.43149 1.6410472 0.019178
0.43156 1.6409384 0.0191814
0.43164 1.6408277 0.0191929
0.43171 1.6407133 0.0192113
0.43178 1.6406084 0.0192561
0.43185 1.6405445 0.0193124
0.43192 1.6405157 0.0193325
0.432 1.6404729 0.0193026
0.43207 1.6403863 0.0192678
0.43214 1.640288 0.0192716
0.43221 1.6402219 0.0192913
0.43228 1.6401823 0.0192831
0.43236 1.6401335 0.0192398
0.43243 1.6400564 0.0191883
0.4325 1.6399704 0.0191522
0.43257 1.6398934 0.0191108
0.43264 1.6398026 0.0190412
0.43272 1.639674 0.0189719
0.43279 1.6395265 0.0189313
0.43286 1.639379 0.0189051
0.43293 1.6392267 0.018886
0.43301 1.6390655 0.0188827
0.43308 1.6389046 0.0189035
0.43315 1.6387585 0.0189461
0.43322 1.6386258 0.0189926
0.43329 1.6384953 0.0190528
0.43337 1.638393 0.0191506
0.43344 1.6383557 0.0192514
0.43351 1.6383554 0.0192927
0.43358 1.6383317 0.0192893
0.43366 1.638282 0.0192958
0.43373 1.6382416 0.0193184
0.4338 1.6382217 0.0193303
0.43387 1.6382078 0.0193227
0.43395 1.6381937 0.0193029
0.43402 1.6381806 0.0192692
0.43409 1.6381605 0.0192146
0.43417 1.638117 0.0191452
0.43424 1.6380505 0.0190883
0.43431 1.6379869 0.0190547
0.43438 1.6379479 0.0190275
0.43446 1.6379453 0.0189855
0.43453 1.6379462 0.0188779
0.4346 1.6379043 0.0187334
0.43468 1.6378031 0.0185775
0.43475 1.6376584 0.0184562
0.43482 1.6375101 0.0183703
0.43489 1.6373724 0.0182916
0.43497 1.6372336 0.0182072
0.43504 1.6370789 0.018116
0.43511 1.6368928 0.0180273
0.43519 1.6366679 0.0179668
0.43526 1.6364458 0.0179787
0.43533 1.6362691 0.0180179
0.43541 1.6361379 0.0180588
0.43548 1.6360281 0.018067
0.43555 1.635902 0.0180555
0.43562 1.6357607 0.0180611
0.4357 1.6356331 0.018089
0.43577 1.6355314 0.0181139
0.43584 1.6354404 0.01812
0.43592 1.635346 0.0181149
0.43599 1.6352461 0.0181047
0.43606 1.6351378 0.0180905
0.43614 1.63502 0.0180827
0.43621 1.6349039 0.0180894
0.43628 1.6348027 0.0181022
0.43636 1.6347132 0.0181047
0.43643 1.6346217 0.0180944
0.4365 1.6345208 0.018082
0.43658 1.6344159 0.0180754
0.43665 1.634314 0.0180737
0.43673 1.63422 0.018072
0.4368 1.6341308 0.0180606
0.43687 1.6340324 0.0180352
0.43695 1.6339146 0.018012
0.43702 1.633789 0.0180071
0.43709 1.6336705 0.0180146
0.43717 1.6335582 0.0180228
0.43724 1.6334477 0.0180361
0.43731 1.6333457 0.0180577
0.43739 1.6332566 0.0180783
0.43746 1.6331737 0.0180907
0.43754 1.633092 0.0181009
0.43761 1.6330153 0.0181099
0.43768 1.6329436 0.0181125
0.43776 1.632871 0.0181063
0.43783 1.6327931 0.0180972
0.43791 1.6327156 0.0180909
0.43798 1.6326421 0.0180794
0.43805 1.6325637 0.0180568
0.43813 1.6324721 0.0180335
0.4382 1.6323712 0.0180194
0.43828 1.6322697 0.0180194
0.43835 1.6321839 0.0180356
0.43842 1.6321278 0.0180477
0.4385 1.6320851 0.0180263
0.43857 1.632024 0.0179748
0.43865 1.6319307 0.0179193
0.43872 1.6318153 0.0178796
0.4388 1.6316979 0.0178628
0.43887 1.6315919 0.017855
0.43894 1.6314946 0.0178452
0.43902 1.6314023 0.017831
0.43909 1.6313037 0.0178038
0.43917 1.6311833 0.0177764
0.43924 1.6310518 0.0177765
0.43932 1.6309358 0.0177997
0.43939 1.6308438 0.0178259
0.43946 1.6307701 0.0178434
0.43954 1.6307051 0.0178456
0.43961 1.6306385 0.0178323
0.43969 1.6305618 0.0178074
0.43976 1.6304672 0.0177782
0.43984 1.630358 0.0177632
0.43991 1.6302534 0.017768
0.43999 1.6301658 0.0177781
0.44006 1.6300918 0.0177793
0.44014 1.6300187 0.0177665
0.44021 1.6299402 0.0177472
0.44029 1.6298549 0.0177217
0.44036 1.6297539 0.0176911
0.44044 1.6296366 0.0176741
0.44051 1.6295228 0.017681
0.44059 1.629427 0.0176931
0.44066 1.629337 0.0176947
0.44073 1.6292401 0.0176973
0.44081 1.6291491 0.017717
0.44088 1.6290833 0.0177385
0.44096 1.6290296 0.0177332
0.44103 1.6289597 0.017709
0.44111 1.6288763 0.0176962
0.44119 1.6288026 0.0176914
0.44126 1.6287362 0.0176714
0.44134 1.6286588 0.0176379
0.44141 1.6285691 0.0176078
0.44149 1.628474 0.0175781
0.44156 1.6283667 0.0175465
0.44164 1.6282452 0.017527
0.44171 1.6281247 0.0175308
0.44179 1.628024 0.0175459
0.44186 1.627938 0.0175487
0.44194 1.627846 0.0175375
0.44201 1.6277413 0.0175306
0.44209 1.6276352 0.0175356
0.44216 1.6275349 0.0175467
0.44224 1.6274434 0.0175605
0.44231 1.6273586 0.0175686
0.44239 1.6272703 0.0175682
0.44247 1.6271727 0.0175704
0.44254 1.6270722 0.0175831
0.44262 1.6269758 0.0176045
0.44269 1.6268888 0.0176349
0.44277 1.6268188 0.0176684
0.44284 1.6267645 0.0176919
0.44292 1.6267151 0.0176983
0.44299 1.6266578 0.0176913
0.44307 1.626588 0.0176824
0.44315 1.6265137 0.0176825
0.44322 1.6264452 0.0176864
0.4433 1.6263819 0.0176857
0.44337 1.6263194 0.0176792
0.44345 1.6262511 0.0176658
0.44352 1.626174 0.0176546
0.4436 1.6260978 0.0176534
0.44368 1.6260292 0.01765
0.44375 1.6259574 0.0176373
0.44383 1.6258778 0.0176287
0.4439 1.6257999 0.0176275
0.44398 1.6257245 0.0176231
0.44406 1.6256442 0.01762
0.44413 1.6255665 0.0176286
0.44421 1.6255036 0.0176407
0.44429 1.6254525 0.0176398
0.44436 1.6253956 0.0176222
0.44444 1.6253246 0.0176034
0.44451 1.6252487 0.0175945
0.44459 1.6251771 0.0175893
0.44467 1.6251087 0.0175832
0.44474 1.6250441 0.0175776
0.44482 1.6249839 0.017566
0.44489 1.6249218 0.0175458
0.44497 1.6248532 0.0175199
0.44505 1.6247744 0.01749
0.44512 1.6246813 0.0174612
0.4452 1.6245742 0.0174421
0.44528 1.6244303 0.0174324
0.44535 1.6243199 0.0175333
0.44543 1.6243246 0.0176168
0.44551 1.6243604 0.0175923
0.44558 1.6243217 0.0175063
0.44566 1.6242372 0.0174784
0.44574 1.6241915 0.0174675
0.44581 1.624136 0.0173853
0.44589 1.6240007 0.0173069
0.44597 1.6238353 0.0173121
0.44604 1.6237234 0.0173757
0.44612 1.6236726 0.0174191
0.4462 1.6236123 0.0174134
0.44627 1.6235397 0.0174512
0.44635 1.6235388 0.0175134
0.44643 1.6235825 0.017482
0.4465 1.6235893 0.0173868
0.44658 1.6235251 0.0172569
0.44666 1.6233741 0.0171496
0.44673 1.62322 0.0171484
0.44681 1.6231285 0.0171455
0.44689 1.6230239 0.0170863
0.44697 1.6228641 0.0170491
0.44704 1.6226704 0.017061
0.44712 1.6225114 0.0171746
0.4472 1.6224868 0.0173187
0.44727 1.6225198 0.0173201
0.44735 1.6224531 0.0172541
0.44743 1.6223336 0.0172891
0.44751 1.6222958 0.0173797
0.44758 1.6223324 0.0174011
0.44766 1.6223543 0.0173395
0.44774 1.6223104 0.0172417
0.44782 1.6222048 0.0171598
0.44789 1.62205 0.0171093
0.44797 1.6218668 0.0171341
0.44805 1.6217541 0.0172724
0.44812 1.6217961 0.0174047
0.4482 1.6219115 0.0173866
0.44828 1.6219434 0.0172363
0.44836 1.6218307 0.0170882
0.44844 1.6216682 0.0170583
0.44851 1.6215728 0.0170857
0.44859 1.6215029 0.0170517
0.44867 1.6213794 0.0170221
0.44875 1.6212783 0.0170835
0.44882 1.6212693 0.0171265
0.4489 1.6212622 0.0170677
0.44898 1.6211855 0.0169981
0.44906 1.6210941 0.0169774
0.44913 1.6210284 0.0169497
0.44921 1.6209413 0.0168815
0.44929 1.6208027 0.016829
0.44937 1.6206485 0.0168252
0.44945 1.6204871 0.0168416
0.44952 1.6203315 0.016929
