642 .False. # Number of lines, conductive flag
# 5 line header for n-k original data
# Sphalerite ZnS -  Palik (1985), Querry (1987) - (cubic zinc sulfide)
# Taken from:
# wl(um)      n                k
0.0001240 0.9999928 7.09E-07
0.0001269 0.9999925 7.69E-07
0.0001298 0.9999919 1.75E-07
0.0001329 0.9999913 1.91E-07
0.0001359 0.9999908 2.09E-07
0.0001391 0.9999903 2.28E-07
0.0001424 0.9999897 2.50E-07
0.0001457 0.9999893 2.73E-07
0.0001491 0.9999887 2.98E-07
0.0001525 0.9999881 3.26E-07
0.0001561 0.9999875 3.56E-07
0.0001597 0.9999869 3.88E-07
0.0001634 0.9999863 4.24E-07
0.0001673 0.9999856 4.63E-07
0.0001711 0.9999849 5.06E-07
0.0001751 0.9999842 5.52E-07
0.0001792 0.9999834 6.03E-07
0.0001834 0.9999826 6.58E-07
0.0001877 0.9999818 7.18E-07
0.0001920 0.9999809 7.83E-07
0.0001965 0.9999800 8.55E-07
0.0002011 0.9999790 9.32E-07
0.0002058 0.9999780 1.02E-06
0.0002106 0.9999769 1.11E-06
0.0002155 0.9999758 1.21E-06
0.0002205 0.9999747 1.32E-06
0.0002256 0.9999735 1.44E-06
0.0002309 0.9999722 1.57E-06
0.0002362 0.9999709 1.71E-06
0.0002418 0.9999694 1.87E-06
0.0002474 0.9999680 2.03E-06
0.0002531 0.9999664 2.22E-06
0.0002590 0.9999648 2.42E-06
0.0002651 0.9999632 2.63E-06
0.0002712 0.9999614 2.87E-06
0.0002776 0.9999596 3.12E-06
0.0002840 0.9999577 3.40E-06
0.0002906 0.9999557 3.71E-06
0.0002974 0.9999536 4.04E-06
0.0003043 0.9999514 4.40E-06
0.0003114 0.9999491 4.79E-06
0.0003187 0.9999467 5.21E-06
0.0003261 0.9999442 5.68E-06
0.0003337 0.9999416 6.18E-06
0.0003415 0.9999389 6.72E-06
0.0003494 0.9999360 7.32E-06
0.0003576 0.9999331 7.96E-06
0.0003659 0.9999300 8.66E-06
0.0003744 0.9999268 9.42E-06
0.0003832 0.9999235 1.02E-05
0.0003921 0.9999201 1.11E-05
0.0004012 0.9999165 1.21E-05
0.0004105 0.9999128 1.32E-05
0.0004201 0.9999090 1.43E-05
0.0004299 0.9999050 1.55E-05
0.0004399 0.9999011 1.69E-05
0.0004502 0.999897 1.83E-05
0.0004607 0.999893 1.99E-05
0.0004714 0.999889 2.16E-05
0.0004824 0.999885 2.35E-05
0.0004936 0.999883 2.55E-05
0.0005051 0.999890 1.68E-05
0.0005169 0.999871 1.82E-05
0.0005289 0.999863 1.98E-05
0.0005412 0.999855 2.15E-05
0.0005538 0.999848 2.34E-05
0.0005667 0.999840 2.55E-05
0.0005799 0.999832 2.77E-05
0.0005934 0.999824 3.00E-05
0.0006073 0.999816 3.26E-05
0.0006214 0.999807 3.54E-05
0.0006359 0.999798 3.84E-05
0.0006507 0.999789 4.17E-05
0.0006658 0.999779 4.52E-05
0.0006813 0.999769 4.91E-05
0.0006972 0.999758 5.33E-05
0.0007135 0.999748 5.78E-05
0.0007301 0.999736 6.26E-05
0.0007471 0.999725 6.78E-05
0.0007645 0.999713 7.35E-05
0.0007823 0.999701 7.96E-05
0.0008005 0.999688 8.62E-05
0.0008191 0.999676 9.34E-05
0.0008382 0.999663 1.01E-04
0.0008578 0.999649 1.10E-04
0.0008778 0.999636 1.19E-04
0.0008982 0.999622 1.28E-04
0.0009191 0.999609 1.39E-04
0.0009405 0.999596 1.51E-04
0.0009625 0.999583 1.63E-04
0.0009849 0.999572 1.76E-04
0.001008 0.999561 1.89E-04
0.001031 0.999552 2.02E-04
0.001055 0.999542 2.15E-04
0.001080 0.999535 2.30E-04
0.001105 0.999530 2.45E-04
0.001131 0.999531 2.62E-04
0.001157 0.999540 2.79E-04
0.001184 0.999570 2.98E-04
0.001212 0.999644 3.18E-04
0.001240 0.999572 7.60E-05
0.001269 0.999485 8.21E-05
0.001298 0.999427 8.87E-05
0.001328 0.999376 9.59E-05
0.001359 0.999327 1.04E-04
0.001391 0.999281 1.13E-04
0.001423 0.999234 1.22E-04
0.001457 0.999187 1.32E-04
0.001491 0.999138 1.43E-04
0.001525 0.999089 1.55E-04
0.001561 0.999038 1.68E-04
0.001597 0.99899 1.82E-04
0.001634 0.99893 1.97E-04
0.001673 0.99888 2.13E-04
0.001712 0.99882 2.30E-04
0.001751 0.99876 2.49E-04
0.001792 0.99869 2.68E-04
0.001834 0.99863 2.88E-04
0.001877 0.99856 3.12E-04
0.001920 0.99849 3.38E-04
0.001965 0.99841 3.65E-04
0.002011 0.99834 3.94E-04
0.002057 0.99826 4.25E-04
0.002106 0.99817 4.58E-04
0.002155 0.99808 4.95E-04
0.002205 0.99799 5.34E-04
0.002256 0.99790 5.77E-04
0.002309 0.99780 6.24E-04
0.002363 0.99769 6.74E-04
0.002417 0.99759 7.29E-04
0.002474 0.99748 7.88E-04
0.002531 0.99736 8.52E-04
0.002591 0.99724 9.22E-04
0.002651 0.99712 9.97E-04
0.002712 0.99700 1.08E-03
0.002776 0.99688 1.16E-03
0.002840 0.99674 1.25E-03
0.002906 0.99661 1.34E-03
0.002974 0.99647 1.44E-03
0.003043 0.99633 1.55E-03
0.003114 0.99618 1.67E-03
0.003187 0.99603 1.80E-03
0.003261 0.99589 1.93E-03
0.003337 0.99574 2.06E-03
0.003415 0.99558 2.20E-03
0.003494 0.99541 2.35E-03
0.003576 0.99524 2.51E-03
0.003660 0.99507 2.68E-03
0.003745 0.99489 2.86E-03
0.003831 0.99471 3.05E-03
0.003921 0.99453 3.26E-03
0.004012 0.99435 3.48E-03
0.004105 0.99417 3.71E-03
0.004201 0.99399 3.96E-03
0.004299 0.99381 4.22E-03
0.004400 0.99364 4.50E-03
0.004502 0.99349 4.78E-03
0.004607 0.99334 5.04E-03
0.004714 0.99317 5.32E-03
0.004824 0.99299 5.61E-03
0.004936 0.99281 5.92E-03
0.005050 0.99263 6.24E-03
0.005168 0.99245 6.59E-03
0.005289 0.99226 6.95E-03
0.005412 0.99208 7.34E-03
0.005537 0.99190 7.76E-03
0.005667 0.99174 8.21E-03
0.005799 0.99161 8.69E-03
0.005935 0.99152 9.17E-03
0.006072 0.99143 9.67E-03
0.006215 0.99137 1.02E-02
0.006358 0.99134 1.08E-02
0.006505 0.99136 1.13E-02
0.006659 0.99146 1.19E-02
0.006812 0.99164 1.26E-02
0.006973 0.99194 1.32E-02
0.007134 0.99237 1.38E-02
0.007302 0.99310 1.44E-02
0.007469 0.99454 1.51E-02
0.007644 0.99827 9.47E-03
0.007822 0.99434 9.90E-03
0.008004 0.99289 1.04E-02
0.008189 0.99203 1.08E-02
0.008383 0.99142 1.13E-02
0.008580 0.99103 1.18E-02
0.008670 0.99439 5.87E-03
0.008775 0.99059 1.19E-02
0.008856 0.99411 6.11E-03
0.008984  0.9899 1.20E-02
0.009116 0.99375 6.45E-03
0.009191  0.9890 1.25E-02
0.009322 0.99347 6.73E-03
0.009407  0.9883 1.31E-02
0.009537 0.99321 7.02E-03
0.009626  0.9878 1.38E-02
0.009762 0.99293 7.35E-03
0.009848  0.9873 1.45E-02
0.009998 0.99265 7.69E-03
0.01008  0.9869 1.51E-02
0.01025 0.99237 8.07E-03
0.01031  0.9864 1.57E-02
0.01051 0.99209 8.47E-03
0.01055  0.9860 1.63E-02
0.01078 0.99180 8.90E-03
0.01080  0.9855 1.69E-02
0.01105  0.9850 1.76E-02
0.01107 0.99151 9.36E-03
0.01127 0.99132 9.69E-03
0.01130  0.9844 1.82E-02
0.01157  0.9840 1.89E-02
0.01159 0.99105 1.02E-02
0.01184  0.9835 1.96E-02
0.01192 0.99081 1.08E-02
0.01212  0.9830 2.03E-02
0.01215 0.99068 1.12E-02
0.01240  0.9824 2.10E-02
0.01240 0.99061 1.17E-02
0.01269  0.9818 2.17E-02
0.01298  0.9812 2.24E-02
0.0130   0.989 1.37E-02
0.01329  0.9806 2.32E-02
0.0135   0.988 1.52E-02
0.01359  0.9800 2.40E-02
0.01392  0.9793 2.48E-02
0.0140   0.987 1.68E-02
0.01423  0.9786 2.56E-02
0.01457  0.9779 2.65E-02
0.01490  0.9771 2.75E-02
0.0150   0.982 1.79E-02
0.01525  0.9763 2.85E-02
0.01562  0.9755 2.96E-02
0.01598  0.9747 3.06E-02
0.0160   0.974 2.55E-02
0.01634  0.9740 3.18E-02
0.01673  0.9732 3.29E-02
0.0170   0.974 2.81E-02
0.01712  0.9724 3.41E-02
0.01751  0.9716 3.53E-02
0.01792  0.9708 3.65E-02
0.0180   0.973 3.06E-02
0.01834  0.9700 3.77E-02
0.01876  0.9691 3.90E-02
0.0190   0.969 3.32E-02
0.01919  0.9682 4.03E-02
0.01965  0.9673 4.16E-02
0.0200   0.964 3.32E-02
0.02009  0.9664 4.29E-02
0.02056  0.9654 4.43E-02
0.0210   0.964 3.57E-02
0.02105  0.9646 4.58E-02
0.02156  0.9637 4.70E-02
0.0220   0.962 3.83E-02
0.02206  0.9626 4.82E-02
0.02254  0.9614 4.95E-02
0.0230   0.962 3.83E-02
0.02309  0.9602 5.08E-02
0.02362  0.9589 5.21E-02
0.0240   0.962 4.34E-02
0.02417  0.9576 5.35E-02
0.0250   0.957 4.34E-02
0.0260   0.957 4.34E-02
0.0270   0.954 4.34E-02
0.0280   0.949 4.59E-02
0.0290   0.944 4.85E-02
0.0300   0.941 5.10E-02
0.0320   0.929 5.61E-02
0.0340   0.911 6.12E-02
0.0360   0.890 6.89E-02
0.0380   0.867 7.91E-02
0.0400   0.847 9.95E-02
0.0420   0.819   0.110
0.0440   0.809   0.125
0.0460   0.801   0.145
0.0480   0.798   0.158
0.0500   0.796   0.171
0.0520   0.793   0.189
0.0540   0.793   0.204
0.0560   0.788   0.222
0.0580   0.788   0.242
0.0600   0.783   0.260
0.0620   0.776   0.286
0.0640   0.765   0.314
0.0660   0.758   0.347
0.0700   0.747   0.431
0.0720   0.747   0.464
0.0740   0.742   0.500
0.0760   0.737   0.543
0.0780   0.737   0.584
0.0800   0.742   0.620
0.0820   0.758   0.679
0.0840   0.791   0.735
0.0860   0.798   0.773
0.0880   0.783   0.801
0.0900   0.758   0.824
0.0920   0.765   0.842
0.0940   0.793   0.857
0.0960   0.827   0.862
0.0980   0.852   0.867
0.1000   0.862   0.876
0.105   0.834   0.903
0.110   0.819    1.02
0.115   0.855    1.14
0.120   0.929    1.27
0.125    1.02    1.36
0.130    1.13    1.42
0.135    1.23    1.44
0.140    1.33    1.44
0.145    1.38    1.45
0.150    1.41    1.47
0.155    1.48    1.53
0.160    1.55    1.58
0.165    1.65    1.64
0.170    1.76    1.70
0.175    1.88    1.72
0.180    2.01    1.72
0.185    2.11    1.68
0.190    2.19    1.64
0.195    2.26    1.62
0.200    2.32    1.62
0.2066   2.24    1.65
0.2156   2.80    1.72
0.2200 3.017 1.318
0.2400 3.044 0.740
0.2600 2.905 0.523
0.2800 2.816 0.417
0.3000 2.774 0.357
0.3200 2.784 0.299
0.3400 2.790 0.190
0.3600 2.710 0.054
0.3800 2.615 0.015
0.4000 2.550 0.008
0.4200 2.508 0.004
0.4400 2.475 0.003
0.4600 2.451 0.003
0.4800 2.429 0.001
0.5000 2.416 0.003
0.5200 2.397 0.000
0.5400 2.384 0.000
0.5600 2.373 0.001
0.5800 2.363 0.001
0.6000 2.355 0.002
0.6200 2.348 0.002
0.6400 2.341 0.002
0.6600 2.335 0.005
0.6800 2.331 0.005
0.7000 2.327 0.006
0.7200 2.322 0.006
0.7400 2.319 0.007
0.7600 2.316 0.007
0.7800 2.313 0.008
0.8000 2.310 0.009
0.8200 2.308 0.009
0.8400 2.306 0.010
0.8600 2.304 0.011
0.8800 2.303 0.011
0.9000 2.301 0.012
0.9200 2.300 0.012
0.9400 2.299 0.013
0.9600 2.298 0.014
0.9800 2.298 0.015
1.0000 2.298 0.016
1.0200 2.298 0.016
1.0400 2.299 0.015
1.0600 2.299 0.015
1.0800 2.299 0.014
1.1000 2.299 0.014
1.1200 2.299 0.013
1.1400 2.299 0.012
1.1600 2.299 0.010
1.1800 2.298 0.010
1.2000 2.298 0.009
1.2200 2.297 0.008
1.2400 2.297 0.007
1.2600 2.296 0.007
1.2800 2.296 0.006
1.3000 2.295 0.005
1.3200 2.294 0.005
1.3400 2.293 0.005
1.3600 2.293 0.004
1.3800 2.292 0.004
1.4000 2.292 0.004
1.4200 2.292 0.004
1.4400 2.291 0.004
1.4600 2.291 0.003
1.4800 2.291 0.002
1.5000 2.290 0.002
1.5200 2.290 0.002
1.5400 2.289 0.001
1.5600 2.289 0.001
1.5800 2.289 0.001
1.6000 2.288 0.000
1.6200 2.288 0.000
1.6400 2.287 0.000
1.6600 2.286 0.000
1.6800 2.286 0.000
1.7000 2.286 0.000
1.7200 2.286 0.000
1.7400 2.286 0.000
1.7600 2.286 0.000
1.7800 2.286 0.000
1.8000 2.286 0.000
1.8200 2.286 0.000
1.8400 2.287 0.000
1.8600 2.287 0.000
1.8800 2.287 0.000
1.9000 2.287 0.000
1.9200 2.287 0.000
1.9400 2.287 0.000
1.9600 2.286 0.000
1.9800 2.286 0.000
2.0000 2.285 0.000
2.0200 2.285 0.000
2.0400 2.284 0.000
2.0600 2.284 0.000
2.0800 2.283 0.000
2.1000 2.281 0.000
2.1200 2.280 0.000
2.1400 2.280 0.000
2.1600 2.279 0.000
2.1800 2.278 0.000
2.2000 2.278 0.000
2.2200 2.277 0.000
2.2400 2.277 0.000
2.2600 2.276 0.000
2.2800 2.276 0.000
2.3000 2.275 0.000
2.3200 2.274 0.000
2.3400 2.273 0.000
2.3600 2.272 0.000
2.3800 2.271 0.000
2.4000 2.271 0.000
2.4200 2.270 0.000
2.4400 2.269 0.000
2.4600 2.268 0.000
2.4800 2.268 0.000
2.5000 2.268 0.003
2.5126 2.268 0.002
2.5253 2.268 0.002
2.5381 2.268 0.002
2.5510 2.268 0.002
2.5641 2.268 0.002
2.5773 2.268 0.002
2.5907 2.268 0.002
2.6042 2.268 0.002
2.6178 2.268 0.002
2.6316 2.268 0.002
2.6455 2.268 0.001
2.6596 2.268 0.001
2.6738 2.268 0.001
2.6882 2.267 0.001
2.7027 2.267 0.001
2.7174 2.267 0.000
2.7322 2.267 0.000
2.7473 2.266 0.000
2.7624 2.266 0.000
2.7778 2.266 0.000
2.7933 2.265 0.000
2.8090 2.265 0.000
2.8249 2.264 0.000
2.8409 2.264 0.000
2.8571 2.264 0.000
2.8736 2.263 0.000
2.8902 2.263 0.000
2.9070 2.263 0.000
2.9240 2.263 0.000
2.9412 2.263 0.000
2.9586 2.262 0.000
2.9762 2.262 0.000
2.9940 2.262 0.000
3.0120 2.262 0.000
3.0303 2.262 0.000
3.0488 2.261 0.000
3.0675 2.261 0.001
3.0864 2.261 0.000
3.1056 2.261 0.000
3.1250 2.261 0.001
3.1447 2.260 0.001
3.1646 2.260 0.001
3.1847 2.260 0.001
3.2051 2.260 0.000
3.2258 2.260 0.001
3.2468 2.260 0.000
3.2680 2.259 0.001
3.2895 2.259 0.001
3.3113 2.259 0.001
3.3333 2.259 0.001
3.3557 2.259 0.001
3.3784 2.259 0.001
3.4014 2.259 0.001
3.4247 2.258 0.001
3.4483 2.258 0.001
3.4722 2.258 0.001
3.4965 2.258 0.001
3.5211 2.258 0.001
3.5461 2.258 0.001
3.5714 2.258 0.001
3.5971 2.257 0.001
3.6232 2.257 0.001
3.6496 2.257 0.001
3.6765 2.257 0.001
3.7037 2.257 0.001
3.7313 2.257 0.001
3.7594 2.257 0.001
3.7879 2.256 0.001
3.8168 2.256 0.001
3.8462 2.256 0.001
3.8760 2.256 0.001
3.9063 2.256 0.000
3.9370 2.256 0.000
3.9683 2.255 0.000
4.0000 2.255 0.000
4.0323 2.255 0.000
4.0650 2.254 0.000
4.0984 2.254 0.000
4.1322 2.254 0.000
4.1667 2.253 0.000
4.2017 2.253 0.000
4.2373 2.252 0.000
4.2735 2.252 0.000
4.3103 2.252 0.000
4.3478 2.251 0.000
4.3860 2.251 0.001
4.4248 2.251 0.001
4.4643 2.250 0.001
4.5045 2.250 0.001
4.5455 2.250 0.001
4.5872 2.250 0.001
4.6296 2.250 0.001
4.6729 2.250 0.001
4.7170 2.249 0.001
4.7619 2.249 0.001
4.8077 2.249 0.001
4.8544 2.249 0.000
4.9020 2.248 0.000
4.9505 2.248 0.000
5.0000 2.248 0.001
5.0505 2.247 0.001
5.1020 2.247 0.001
5.1546 2.247 0.000
5.2083 2.246 0.000
5.2632 2.246 0.000
5.3191 2.246 0.000
5.3763 2.245 0.000
5.4348 2.244 0.000
5.4945 2.244 0.000
5.5556 2.243 0.000
5.6180 2.242 0.000
5.6818 2.242 0.000
5.7471 2.241 0.000
5.8140 2.240 0.000
5.8824 2.239 0.000
5.9524 2.239 0.000
6.0241 2.238 0.000
6.0976 2.237 0.001
6.1728 2.236 0.001
6.2500 2.236 0.001
6.3291 2.235 0.001
6.4103 2.235 0.002
6.4935 2.234 0.002
6.5789 2.234 0.002
6.6667 2.233 0.002
6.7568 2.232 0.002
6.8493 2.232 0.002
6.9444 2.231 0.003
7.0423 2.230 0.003
7.1429 2.229 0.003
7.2464 2.229 0.003
7.3529 2.228 0.003
7.4627 2.227 0.003
7.5758 2.226 0.003
7.6923 2.225 0.003
7.8125 2.224 0.003
7.9365 2.223 0.003
8.0645 2.221 0.003
8.1967 2.220 0.004
8.3333 2.219 0.004
8.4746 2.217 0.004
8.6207 2.216 0.003
8.7719 2.214 0.003
8.9286 2.213 0.003
9.0909 2.211 0.003
9.2593 2.209 0.003
9.4340 2.207 0.003
9.6154 2.204 0.003
9.8039 2.201 0.002
10.0000 2.199 0.002
10.2041 2.196 0.002
10.4167 2.192 0.002
10.6383 2.189 0.002
10.8696 2.185 0.002
11.1111 2.180 0.002
11.3536 2.176 0.003
11.6279 2.172 0.003
11.9048 2.167 0.004
12.1951 2.161 0.004
12.5000 2.155 0.005
12.8205 2.149 0.006
13.1579 2.141 0.006
13.5135 2.133 0.007
13.8889 2.125 0.010
14.2857 2.116 0.012
14.7059 2.107 0.014
15.1515 2.097 0.016
15.6250 2.086 0.017
16.1290 2.074 0.018
16.6667 2.059 0.019
17.2414 2.042 0.019
17.8571 2.021 0.017
18.5185 1.995 0.016
19.2308 1.960 0.018
20.0000 1.923 0.026
20.8333 1.883 0.029
21.7391 1.828 0.027
22.7273 1.751 0.028
23.8095 1.648 0.037
25.0000 1.507 0.048
26.3158 1.296 0.066
27.7778 0.865 0.097
29.4118 0.093 0.944
31.2500 0.107 2.072
33.3333 0.702 3.451
35.7143 2.653 5.788
38.4615 6.369 1.269
41.6667 4.347 0.153
45.4545 3.709 0.171
50.0000 3.465 0.173
55.5556 3.324 0.151
62.5000 3.223 0.120
71.4286 3.150 0.098
83.3333 3.097 0.079
100.0000 3.058 0.063
125.0000 3.029 0.049
166.6667 3.008 0.036
181.8  2.918 5.4E-03
200.0  2.913 5.1E-03
222.2  2.908 5.6E-03
250.0  2.903 6.2E-03
285.7  2.899 7.0E-03
333.3  2.896 0.0
400.0  2.894 0.0
500.0  2.892 0.0
666.7  2.890 0.0
