#lambda (nm)  cross(cm^2)
121.6         4.512E-22
121.7         4.461E-22
121.8         4.410E-22
121.9         4.360E-22
122.0         4.310E-22
122.1         4.262E-22
122.2         4.213E-22
122.3         4.166E-22
122.4         4.119E-22
122.5         4.072E-22
122.6         4.026E-22
122.7         3.981E-22
122.8         3.936E-22
122.9         3.891E-22
123.0         3.848E-22
123.1         3.804E-22
123.2         3.762E-22
123.3         3.719E-22
123.4         3.678E-22
123.5         3.636E-22
123.6         3.596E-22
123.7         3.556E-22
123.8         3.516E-22
123.9         3.477E-22
124.0         3.438E-22
124.1         3.399E-22
124.2         3.362E-22
124.3         3.324E-22
124.4         3.287E-22
124.5         3.251E-22
124.6         3.215E-22
124.7         3.179E-22
124.8         3.144E-22
124.9         3.109E-22
125.0         3.074E-22
125.1         3.040E-22
125.2         3.007E-22
125.3         2.974E-22
125.4         2.941E-22
125.5         2.908E-22
125.6         2.876E-22
125.7         2.845E-22
125.8         2.814E-22
125.9         2.783E-22
126.0         2.752E-22
126.1         2.722E-22
126.2         2.692E-22
126.3         2.663E-22
126.4         2.634E-22
126.5         2.605E-22
126.6         2.576E-22
126.7         2.548E-22
126.8         2.521E-22
126.9         2.493E-22
127.0         2.466E-22
127.1         2.439E-22
127.2         2.413E-22
127.3         2.386E-22
127.4         2.361E-22
127.5         2.335E-22
127.6         2.310E-22
127.7         2.285E-22
127.8         2.260E-22
127.9         2.236E-22
128.0         2.212E-22
128.1         2.188E-22
128.2         2.164E-22
128.3         2.141E-22
128.4         2.118E-22
128.5         2.095E-22
128.6         2.073E-22
128.7         2.050E-22
128.8         2.028E-22
128.9         2.007E-22
129.0         1.985E-22
129.1         1.964E-22
129.2         1.943E-22
129.3         1.922E-22
129.4         1.902E-22
129.5         1.881E-22
129.6         1.861E-22
129.7         1.842E-22
129.8         1.822E-22
129.9         1.803E-22
130.0         1.784E-22
130.1         1.765E-22
130.2         1.746E-22
130.3         1.727E-22
130.4         1.709E-22
130.5         1.691E-22
130.6         1.673E-22
130.7         1.656E-22
130.8         1.638E-22
130.9         1.621E-22
131.0         1.604E-22
131.1         1.587E-22
131.2         1.570E-22
131.3         1.554E-22
131.4         1.538E-22
131.5         1.521E-22
131.6         1.506E-22
131.7         1.490E-22
131.8         1.474E-22
131.9         1.459E-22
132.0         1.444E-22
132.1         1.429E-22
132.2         1.414E-22
132.3         1.399E-22
132.4         1.384E-22
132.5         1.370E-22
132.6         1.356E-22
132.7         1.342E-22
132.8         1.328E-22
132.9         1.314E-22
133.0         1.300E-22
133.1         1.287E-22
133.2         1.274E-22
133.3         1.260E-22
133.4         1.247E-22
133.5         1.235E-22
133.6         1.222E-22
133.7         1.209E-22
133.8         1.197E-22
133.9         1.185E-22
134.0         1.172E-22
134.1         1.160E-22
134.2         1.149E-22
134.3         1.137E-22
134.4         1.125E-22
134.5         1.114E-22
134.6         1.102E-22
134.7         1.091E-22
134.8         1.080E-22
134.9         1.069E-22
135.0         1.058E-22
135.1         1.047E-22
135.2         1.037E-22
135.3         1.026E-22
135.4         1.016E-22
135.5         1.005E-22
135.6         9.951E-23
135.7         9.851E-23
135.8         9.751E-23
135.9         9.652E-23
136.0         9.555E-23
136.1         9.458E-23
136.2         9.363E-23
136.3         9.269E-23
136.4         9.175E-23
136.5         9.083E-23
136.6         8.992E-23
136.7         8.902E-23
136.8         8.812E-23
136.9         8.724E-23
137.0         8.637E-23
137.1         8.550E-23
137.2         8.465E-23
137.3         8.380E-23
137.4         8.296E-23
137.5         8.214E-23
137.6         8.132E-23
137.7         8.051E-23
137.8         7.971E-23
137.9         7.891E-23
138.0         7.813E-23
138.1         7.735E-23
138.2         7.659E-23
138.3         7.583E-23
138.4         7.508E-23
138.5         7.433E-23
138.6         7.360E-23
138.7         7.287E-23
138.8         7.215E-23
138.9         7.144E-23
139.0         7.074E-23
139.1         7.004E-23
139.2         6.935E-23
139.3         6.867E-23
139.4         6.800E-23
139.5         6.733E-23
139.6         6.667E-23
139.7         6.601E-23
139.8         6.537E-23
139.9         6.473E-23
140.0         6.410E-23
140.1         6.347E-23
140.2         6.285E-23
140.3         6.224E-23
140.4         6.163E-23
140.5         6.103E-23
140.6         6.044E-23
140.7         5.985E-23
140.8         5.927E-23
140.9         5.869E-23
141.0         5.813E-23
141.1         5.756E-23
141.2         5.701E-23
141.3         5.645E-23
141.4         5.591E-23
141.5         5.537E-23
141.6         5.484E-23
141.7         5.431E-23
141.8         5.378E-23
141.9         5.327E-23
142.0         5.275E-23
142.1         5.225E-23
142.2         5.175E-23
142.3         5.125E-23
142.4         5.076E-23
142.5         5.027E-23
142.6         4.979E-23
142.7         4.932E-23
142.8         4.884E-23
142.9         4.838E-23
143.0         4.792E-23
143.1         4.746E-23
143.2         4.701E-23
143.3         4.656E-23
143.4         4.612E-23
143.5         4.568E-23
143.6         4.525E-23
143.7         4.482E-23
143.8         4.439E-23
143.9         4.397E-23
144.0         4.356E-23
144.1         4.315E-23
144.2         4.274E-23
144.3         4.234E-23
144.4         4.194E-23
144.5         4.154E-23
144.6         4.115E-23
144.7         4.076E-23
144.8         4.038E-23
144.9         4.000E-23
145.0         3.963E-23
145.1         3.926E-23
145.2         3.889E-23
145.3         3.852E-23
145.4         3.816E-23
145.5         3.781E-23
145.6         3.745E-23
145.7         3.711E-23
145.8         3.676E-23
145.9         3.642E-23
146.0         3.608E-23
146.1         3.574E-23
146.2         3.541E-23
146.3         3.508E-23
146.4         3.476E-23
146.5         3.444E-23
146.6         3.412E-23
146.7         3.380E-23
146.8         3.349E-23
146.9         3.318E-23
147.0         3.287E-23
147.1         3.257E-23
147.2         3.227E-23
147.3         3.197E-23
147.4         3.168E-23
147.5         3.139E-23
147.6         3.110E-23
147.7         3.082E-23
147.8         3.053E-23
147.9         3.025E-23
148.0         2.998E-23
148.1         2.970E-23
148.2         2.943E-23
148.3         2.916E-23
148.4         2.890E-23
148.5         2.863E-23
148.6         2.837E-23
148.7         2.812E-23
148.8         2.786E-23
148.9         2.761E-23
149.0         2.736E-23
149.1         2.711E-23
149.2         2.686E-23
149.3         2.662E-23
149.4         2.638E-23
149.5         2.614E-23
149.6         2.591E-23
149.7         2.567E-23
149.8         2.544E-23
149.9         2.521E-23
150.0         2.498E-23
150.1         2.476E-23
150.2         2.454E-23
150.3         2.432E-23
150.4         2.410E-23
150.5         2.388E-23
150.6         2.367E-23
150.7         2.346E-23
150.8         2.325E-23
150.9         2.304E-23
151.0         2.284E-23
151.1         2.263E-23
151.2         2.243E-23
151.3         2.223E-23
151.4         2.203E-23
151.5         2.184E-23
151.6         2.164E-23
151.7         2.145E-23
151.8         2.126E-23
151.9         2.107E-23
152.0         2.089E-23
152.1         2.070E-23
152.2         2.052E-23
152.3         2.034E-23
152.4         2.016E-23
152.5         1.998E-23
152.6         1.981E-23
152.7         1.963E-23
152.8         1.946E-23
152.9         1.929E-23
153.0         1.912E-23
153.1         1.895E-23
153.2         1.879E-23
153.3         1.862E-23
153.4         1.846E-23
153.5         1.830E-23
153.6         1.814E-23
153.7         1.798E-23
153.8         1.782E-23
153.9         1.767E-23
154.0         1.752E-23
154.1         1.736E-23
154.2         1.721E-23
154.3         1.706E-23
154.4         1.692E-23
154.5         1.677E-23
154.6         1.662E-23
154.7         1.648E-23
154.8         1.634E-23
154.9         1.620E-23
155.0         1.606E-23
155.1         1.592E-23
155.2         1.578E-23
155.3         1.565E-23
155.4         1.551E-23
155.5         1.538E-23
155.6         1.525E-23
155.7         1.512E-23
155.8         1.499E-23
155.9         1.486E-23
156.0         1.473E-23
156.1         1.461E-23
156.2         1.448E-23
156.3         1.436E-23
156.4         1.424E-23
156.5         1.412E-23
156.6         1.400E-23
156.7         1.388E-23
156.8         1.376E-23
156.9         1.364E-23
157.0         1.353E-23
157.1         1.341E-23
157.2         1.330E-23
157.3         1.319E-23
157.4         1.308E-23
157.5         1.296E-23
157.6         1.286E-23
157.7         1.275E-23
157.8         1.264E-23
157.9         1.253E-23
158.0         1.243E-23
158.1         1.232E-23
158.2         1.222E-23
158.3         1.212E-23
158.4         1.202E-23
158.5         1.192E-23
158.6         1.182E-23
158.7         1.172E-23
158.8         1.162E-23
158.9         1.152E-23
159.0         1.143E-23
159.1         1.133E-23
159.2         1.124E-23
159.3         1.115E-23
159.4         1.105E-23
159.5         1.096E-23
159.6         1.087E-23
159.7         1.078E-23
159.8         1.069E-23
159.9         1.060E-23
160.0         1.052E-23
160.1         1.043E-23
160.2         1.034E-23
160.3         1.026E-23
160.4         1.018E-23
160.5         1.009E-23
160.6         1.001E-23
160.7         9.927E-24
160.8         9.846E-24
160.9         9.766E-24
161.0         9.686E-24
161.1         9.607E-24
161.2         9.528E-24
161.3         9.451E-24
161.4         9.374E-24
161.5         9.298E-24
161.6         9.222E-24
161.7         9.147E-24
161.8         9.073E-24
161.9         8.999E-24
162.0         8.927E-24
162.1         8.854E-24
162.2         8.783E-24
162.3         8.712E-24
162.4         8.642E-24
162.5         8.572E-24
162.6         8.503E-24
162.7         8.435E-24
162.8         8.367E-24
162.9         8.300E-24
163.0         8.233E-24
163.1         8.167E-24
163.2         8.102E-24
163.3         8.037E-24
163.4         7.973E-24
163.5         7.909E-24
163.6         7.846E-24
163.7         7.784E-24
163.8         7.722E-24
163.9         7.660E-24
164.0         7.599E-24
164.1         7.539E-24
164.2         7.479E-24
164.3         7.420E-24
164.4         7.361E-24
164.5         7.303E-24
164.6         7.245E-24
164.7         7.188E-24
164.8         7.132E-24
164.9         7.075E-24
165.0         7.020E-24
165.1         6.964E-24
165.2         6.910E-24
165.3         6.856E-24
165.4         6.802E-24
165.5         6.748E-24
165.6         6.696E-24
165.7         6.643E-24
165.8         6.591E-24
165.9         6.540E-24
166.0         6.489E-24
166.1         6.438E-24
166.2         6.388E-24
166.3         6.339E-24
166.4         6.290E-24
166.5         6.241E-24
166.6         6.192E-24
166.7         6.144E-24
166.8         6.097E-24
166.9         6.050E-24
167.0         6.003E-24
167.1         5.957E-24
167.2         5.911E-24
167.3         5.865E-24
167.4         5.820E-24
167.5         5.776E-24
167.6         5.731E-24
167.7         5.687E-24
167.8         5.644E-24
167.9         5.600E-24
168.0         5.558E-24
168.1         5.515E-24
168.2         5.473E-24
168.3         5.431E-24
168.4         5.390E-24
168.5         5.349E-24
168.6         5.308E-24
168.7         5.268E-24
168.8         5.228E-24
168.9         5.189E-24
169.0         5.149E-24
169.1         5.110E-24
169.2         5.072E-24
169.3         5.033E-24
169.4         4.995E-24
169.5         4.958E-24
169.6         4.921E-24
169.7         4.884E-24
169.8         4.847E-24
169.9         4.811E-24
170.0         4.774E-24
170.1         4.739E-24
170.2         4.703E-24
170.3         4.668E-24
170.4         4.633E-24
170.5         4.599E-24
170.6         4.564E-24
170.7         4.530E-24
170.8         4.497E-24
170.9         4.463E-24
171.0         4.430E-24
171.1         4.397E-24
171.2         4.365E-24
171.3         4.333E-24
171.4         4.301E-24
171.5         4.269E-24
171.6         4.237E-24
171.7         4.206E-24
171.8         4.175E-24
171.9         4.145E-24
172.0         4.114E-24
172.1         4.084E-24
172.2         4.054E-24
172.3         4.024E-24
172.4         3.995E-24
172.5         3.966E-24
172.6         3.937E-24
172.7         3.908E-24
172.8         3.880E-24
172.9         3.851E-24
173.0         3.823E-24
173.1         3.796E-24
173.2         3.768E-24
173.3         3.741E-24
173.4         3.714E-24
173.5         3.687E-24
173.6         3.660E-24
173.7         3.634E-24
173.8         3.608E-24
173.9         3.582E-24
174.0         3.556E-24
174.1         3.530E-24
174.2         3.505E-24
174.3         3.480E-24
174.4         3.455E-24
174.5         3.430E-24
174.6         3.406E-24
174.7         3.381E-24
174.8         3.357E-24
174.9         3.333E-24
175.0         3.310E-24
175.1         3.286E-24
175.2         3.263E-24
175.3         3.240E-24
175.4         3.217E-24
175.5         3.194E-24
175.6         3.171E-24
175.7         3.149E-24
175.8         3.127E-24
175.9         3.105E-24
176.0         3.083E-24
176.1         3.061E-24
176.2         3.040E-24
176.3         3.018E-24
176.4         2.997E-24
176.5         2.976E-24
176.6         2.955E-24
176.7         2.935E-24
176.8         2.914E-24
176.9         2.894E-24
177.0         2.874E-24
177.1         2.854E-24
177.2         2.834E-24
177.3         2.814E-24
177.4         2.795E-24
177.5         2.775E-24
177.6         2.756E-24
177.7         2.737E-24
177.8         2.718E-24
177.9         2.700E-24
178.0         2.681E-24
178.1         2.663E-24
178.2         2.644E-24
178.3         2.626E-24
178.4         2.608E-24
178.5         2.590E-24
178.6         2.572E-24
178.7         2.555E-24
178.8         2.537E-24
178.9         2.520E-24
179.0         2.503E-24
179.1         2.486E-24
179.2         2.469E-24
179.3         2.452E-24
179.4         2.436E-24
179.5         2.419E-24
179.6         2.403E-24
179.7         2.387E-24
179.8         2.370E-24
179.9         2.355E-24
180.0         2.339E-24
180.1         2.323E-24
180.2         2.307E-24
180.3         2.292E-24
180.4         2.276E-24
180.5         2.261E-24
180.6         2.246E-24
180.7         2.231E-24
180.8         2.216E-24
180.9         2.201E-24
181.0         2.187E-24
181.1         2.172E-24
181.2         2.158E-24
181.3         2.143E-24
181.4         2.129E-24
181.5         2.115E-24
181.6         2.101E-24
181.7         2.087E-24
181.8         2.074E-24
181.9         2.060E-24
182.0         2.046E-24
182.1         2.033E-24
182.2         2.020E-24
182.3         2.006E-24
182.4         1.993E-24
182.5         1.980E-24
182.6         1.967E-24
182.7         1.954E-24
182.8         1.942E-24
182.9         1.929E-24
183.0         1.916E-24
183.1         1.904E-24
183.2         1.892E-24
183.3         1.879E-24
183.4         1.867E-24
183.5         1.855E-24
183.6         1.843E-24
183.7         1.831E-24
183.8         1.819E-24
183.9         1.808E-24
184.0         1.796E-24
184.1         1.785E-24
184.2         1.773E-24
184.3         1.762E-24
184.4         1.751E-24
184.5         1.739E-24
184.6         1.728E-24
184.7         1.717E-24
184.8         1.706E-24
184.9         1.695E-24
185.0         1.685E-24
185.1         1.674E-24
185.2         1.663E-24
185.3         1.653E-24
185.4         1.642E-24
185.5         1.632E-24
185.6         1.622E-24
185.7         1.612E-24
185.8         1.601E-24
185.9         1.591E-24
186.0         1.581E-24
186.1         1.571E-24
186.2         1.562E-24
186.3         1.552E-24
186.4         1.542E-24
186.5         1.533E-24
186.6         1.523E-24
186.7         1.514E-24
186.8         1.504E-24
186.9         1.495E-24
187.0         1.486E-24
187.1         1.476E-24
187.2         1.467E-24
187.3         1.458E-24
187.4         1.449E-24
187.5         1.440E-24
187.6         1.431E-24
187.7         1.423E-24
187.8         1.414E-24
187.9         1.405E-24
188.0         1.397E-24
188.1         1.388E-24
188.2         1.380E-24
188.3         1.371E-24
188.4         1.363E-24
188.5         1.355E-24
188.6         1.346E-24
188.7         1.338E-24
188.8         1.330E-24
188.9         1.322E-24
189.0         1.314E-24
189.1         1.306E-24
189.2         1.298E-24
189.3         1.290E-24
189.4         1.283E-24
189.5         1.275E-24
189.6         1.267E-24
189.7         1.260E-24
189.8         1.252E-24
189.9         1.245E-24
190.0         1.237E-24
190.1         1.230E-24
190.2         1.223E-24
190.3         1.215E-24
190.4         1.208E-24
190.5         1.201E-24
190.6         1.194E-24
190.7         1.187E-24
190.8         1.180E-24
190.9         1.173E-24
191.0         1.166E-24
191.1         1.159E-24
191.2         1.152E-24
191.3         1.146E-24
191.4         1.139E-24
191.5         1.132E-24
191.6         1.126E-24
191.7         1.119E-24
191.8         1.112E-24
191.9         1.106E-24
192.0         1.100E-24
192.1         1.093E-24
192.2         1.087E-24
192.3         1.081E-24
192.4         1.074E-24
192.5         1.068E-24
192.6         1.062E-24
192.7         1.056E-24
192.8         1.050E-24
192.9         1.044E-24
193.0         1.038E-24
193.1         1.032E-24
193.2         1.026E-24
193.3         1.020E-24
193.4         1.014E-24
193.5         1.008E-24
193.6         1.003E-24
193.7         9.969E-25
193.8         9.913E-25
193.9         9.856E-25
194.0         9.801E-25
194.1         9.745E-25
194.2         9.690E-25
194.3         9.636E-25
194.4         9.581E-25
194.5         9.527E-25
194.6         9.474E-25
194.7         9.421E-25
194.8         9.368E-25
194.9         9.316E-25
195.0         9.264E-25
195.1         9.212E-25
195.2         9.161E-25
195.3         9.110E-25
195.4         9.059E-25
195.5         9.009E-25
195.6         8.959E-25
195.7         8.909E-25
195.8         8.860E-25
195.9         8.811E-25
196.0         8.763E-25
196.1         8.714E-25
196.2         8.666E-25
196.3         8.619E-25
196.4         8.572E-25
196.5         8.525E-25
196.6         8.478E-25
196.7         8.432E-25
196.8         8.386E-25
196.9         8.340E-25
197.0         8.295E-25
197.1         8.250E-25
197.2         8.205E-25
197.3         8.161E-25
197.4         8.117E-25
197.5         8.073E-25
197.6         8.029E-25
197.7         7.986E-25
197.8         7.943E-25
197.9         7.901E-25
198.0         7.858E-25
198.1         7.816E-25
198.2         7.774E-25
198.3         7.733E-25
198.4         7.692E-25
198.5         7.651E-25
198.6         7.610E-25
198.7         7.570E-25
198.8         7.529E-25
198.9         7.490E-25
199.0         7.450E-25
199.1         7.411E-25
199.2         7.372E-25
199.3         7.333E-25
199.4         7.294E-25
199.5         7.256E-25
199.6         7.218E-25
199.7         7.180E-25
199.8         7.142E-25
199.9         7.105E-25
200.0         7.068E-25
200.1         7.031E-25
200.2         6.995E-25
200.3         6.958E-25
200.4         6.922E-25
200.5         6.887E-25
200.6         6.851E-25
200.7         6.816E-25
200.8         6.780E-25
200.9         6.746E-25
201.0         6.711E-25
201.1         6.676E-25
201.2         6.642E-25
201.3         6.608E-25
201.4         6.574E-25
201.5         6.541E-25
201.6         6.508E-25
201.7         6.474E-25
201.8         6.442E-25
201.9         6.409E-25
202.0         6.376E-25
202.1         6.344E-25
202.2         6.312E-25
202.3         6.280E-25
202.4         6.249E-25
202.5         6.217E-25
202.6         6.186E-25
202.7         6.155E-25
202.8         6.124E-25
202.9         6.093E-25
203.0         6.063E-25
203.1         6.033E-25
203.2         6.003E-25
203.3         5.973E-25
203.4         5.943E-25
203.5         5.914E-25
203.6         5.884E-25
203.7         5.855E-25
203.8         5.826E-25
203.9         5.798E-25
204.0         5.769E-25
204.1         5.741E-25
204.2         5.712E-25
204.3         5.684E-25
204.4         5.657E-25
204.5         5.629E-25
204.6         5.601E-25
204.7         5.574E-25
