#Wavelength	H3PO3
#nm	cm2
120	1.08E-18
121	1.82E-18
122	2.82E-18
123	4.04E-18
124	5.38E-18
125	6.74E-18
126	7.98E-18
127	9.03E-18
128	9.85E-18
129	1.04E-17
130	1.08E-17
131	1.09E-17
132	1.09E-17
133	1.07E-17
134	1.03E-17
135	9.92E-18
136	9.49E-18
137	9.13E-18
138	8.90E-18
139	8.86E-18
140	9.00E-18
141	9.30E-18
142	9.69E-18
143	1.01E-17
144	1.04E-17
145	1.05E-17
146	1.04E-17
147	1.01E-17
148	9.55E-18
149	8.86E-18
150	8.07E-18
151	7.25E-18
152	6.45E-18
153	5.72E-18
154	5.08E-18
155	4.56E-18
156	4.15E-18
157	3.85E-18
158	3.65E-18
159	3.53E-18
160	3.48E-18
161	3.49E-18
162	3.53E-18
163	3.60E-18
164	3.68E-18
165	3.75E-18
166	3.81E-18
167	3.84E-18
168	3.83E-18
169	3.77E-18
170	3.67E-18
171	3.52E-18
172	3.33E-18
173	3.10E-18
174	2.84E-18
175	2.57E-18
176	2.29E-18
177	2.01E-18
178	1.74E-18
179	1.48E-18
180	1.24E-18
181	1.03E-18
182	8.45E-19
183	6.83E-19
184	5.45E-19
185	4.30E-19
186	3.35E-19
187	2.58E-19
188	1.97E-19
189	1.48E-19
190	1.11E-19
191	8.16E-20
192	5.96E-20
193	4.32E-20
194	3.10E-20
195	2.20E-20
196	1.55E-20
197	1.08E-20
198	7.51E-21
199	5.17E-21
200	3.52E-21
201	2.39E-21
202	1.60E-21
203	1.07E-21
204	7.10E-22
205	4.68E-22
206	3.06E-22
207	1.99E-22
208	1.29E-22
209	8.30E-23
210	5.31E-23
211	3.38E-23
212	2.14E-23
213	1.35E-23
214	8.45E-24
215	5.27E-24
216	3.28E-24
217	2.03E-24
218	1.25E-24
219	7.67E-25