# wavelength (nm) photoabsorption  photodissociation  photoionisation (cm^2)
77.2000000,    5.05045e-17,    6.20544e-18,    4.42991e-17
77.3000000,    5.05222e-17,    6.22318e-18,    4.42991e-17
77.4000000,    5.05459e-17,    6.24685e-18,    4.42991e-17
77.5000000,    5.05696e-17,    6.27051e-18,    4.42991e-17
77.6000000,    5.05932e-17,    6.29417e-18,    4.42991e-17
77.7000000,    5.06169e-17,    6.31783e-18,    4.42991e-17
77.8000000,    5.06406e-17,    6.34150e-18,    4.42991e-17
77.9000000,    5.06642e-17,    6.36516e-18,    4.42991e-17
78.0000000,    5.06879e-17,    6.38882e-18,    4.42991e-17
78.1000000,    5.07115e-17,    6.41248e-18,    4.42991e-17
78.2000000,    5.07352e-17,    6.43615e-18,    4.42991e-17
78.3000000,    5.07589e-17,    6.45981e-18,    4.42991e-17
78.4000000,    5.07825e-17,    6.48347e-18,    4.42991e-17
78.5000000,    5.08062e-17,    6.50713e-18,    4.42991e-17
78.6000000,    5.08299e-17,    6.53079e-18,    4.42991e-17
78.7000000,    5.08535e-17,    6.55446e-18,    4.42991e-17
78.8000000,    5.08772e-17,    6.57812e-18,    4.42991e-17
78.9000000,    5.09008e-17,    6.60178e-18,    4.42991e-17
79.0000000,    5.09245e-17,    6.62544e-18,    4.42991e-17
79.1000000,    5.09482e-17,    6.64911e-18,    4.42991e-17
79.2000000,    5.09718e-17,    6.67277e-18,    4.42991e-17
79.3000000,    5.09955e-17,    6.69643e-18,    4.42991e-17
79.4000000,    5.10192e-17,    6.72009e-18,    4.42991e-17
79.5000000,    5.10428e-17,    6.74375e-18,    4.42991e-17
79.6000000,    5.10665e-17,    6.76742e-18,    4.42991e-17
79.7000000,    5.10901e-17,    6.79108e-18,    4.42991e-17
79.8000000,    5.11138e-17,    6.81474e-18,    4.42991e-17
79.9000000,    5.11375e-17,    6.83840e-18,    4.42991e-17
80.0000000,    5.11611e-17,    6.86207e-18,    4.42991e-17
80.1000000,    5.11848e-17,    6.88573e-18,    4.42991e-17
80.2000000,    5.12085e-17,    6.90939e-18,    4.42991e-17
80.3000000,    5.12321e-17,    6.93305e-18,    4.42991e-17
80.4000000,    5.12558e-17,    6.95672e-18,    4.42991e-17
80.5000000,    5.12794e-17,    6.98038e-18,    4.42991e-17
80.6000000,    5.13031e-17,    7.00404e-18,    4.42991e-17
80.7000000,    5.13268e-17,    7.02770e-18,    4.42991e-17
80.8000000,    5.13504e-17,    7.05136e-18,    4.42991e-17
80.9000000,    5.13741e-17,    7.07503e-18,    4.42991e-17
81.0000000,    5.13978e-17,    7.09869e-18,    4.42991e-17
81.1000000,    5.14214e-17,    7.12235e-18,    4.42991e-17
81.2000000,    5.14451e-17,    7.14601e-18,    4.42991e-17
81.3000000,    5.14687e-17,    7.16968e-18,    4.42991e-17
81.4000000,    5.14924e-17,    7.19334e-18,    4.42991e-17
81.5000000,    5.15161e-17,    7.21700e-18,    4.42991e-17
81.6000000,    5.15397e-17,    7.24066e-18,    4.42991e-17
81.7000000,    5.15634e-17,    7.26433e-18,    4.42991e-17
81.8000000,    5.15871e-17,    7.28799e-18,    4.42991e-17
81.9000000,    5.16107e-17,    7.31165e-18,    4.42991e-17
82.0000000,    5.16344e-17,    7.33531e-18,    4.42991e-17
82.1000000,    5.16580e-17,    7.35897e-18,    4.42991e-17
82.2000000,    5.16817e-17,    7.38264e-18,    4.42991e-17
82.3000000,    5.17054e-17,    7.40630e-18,    4.42991e-17
82.4000000,    5.17290e-17,    7.42996e-18,    4.42991e-17
82.5000000,    5.17527e-17,    7.45362e-18,    4.42991e-17
82.6000000,    5.17764e-17,    7.47729e-18,    4.42991e-17
82.7000000,    5.18000e-17,    7.50095e-18,    4.42991e-17
82.8000000,    5.18237e-17,    7.52461e-18,    4.42991e-17
82.9000000,    5.18473e-17,    7.54827e-18,    4.42991e-17
83.0000000,    5.18710e-17,    7.57194e-18,    4.42991e-17
83.1000000,    5.18947e-17,    7.59560e-18,    4.42991e-17
83.2000000,    5.19183e-17,    7.61926e-18,    4.42991e-17
83.3000000,    5.19420e-17,    7.64292e-18,    4.42991e-17
83.4000000,    5.19657e-17,    7.66658e-18,    4.42991e-17
83.5000000,    5.19893e-17,    7.69025e-18,    4.42991e-17
83.6000000,    5.20130e-17,    7.71391e-18,    4.42991e-17
83.7000000,    5.20366e-17,    7.73757e-18,    4.42991e-17
83.8000000,    5.20603e-17,    7.76123e-18,    4.42991e-17
83.9000000,    5.20840e-17,    7.78490e-18,    4.42991e-17
84.0000000,    5.21076e-17,    7.80856e-18,    4.42991e-17
84.1000000,    5.21313e-17,    7.83222e-18,    4.42991e-17
84.2000000,    5.21549e-17,    7.85588e-18,    4.42991e-17
84.3000000,    5.21786e-17,    7.87955e-18,    4.42991e-17
84.4000000,    5.22023e-17,    7.90321e-18,    4.42991e-17
84.5000000,    5.22259e-17,    7.92687e-18,    4.42991e-17
84.6000000,    5.22496e-17,    7.95053e-18,    4.42991e-17
84.7000000,    5.22733e-17,    7.97419e-18,    4.42991e-17
84.8000000,    5.22969e-17,    7.99786e-18,    4.42991e-17
84.9000000,    5.23206e-17,    8.02152e-18,    4.42991e-17
85.0000000,    5.23442e-17,    8.04518e-18,    4.42991e-17
85.1000000,    5.23679e-17,    8.06884e-18,    4.42991e-17
85.2000000,    5.23916e-17,    8.09251e-18,    4.42991e-17
85.3000000,    5.24152e-17,    8.11617e-18,    4.42991e-17
85.4000000,    5.24389e-17,    8.13983e-18,    4.42991e-17
85.5000000,    5.24626e-17,    8.16349e-18,    4.42991e-17
85.6000000,    5.24862e-17,    8.18716e-18,    4.42991e-17
85.7000000,    5.25099e-17,    8.21082e-18,    4.42991e-17
85.8000000,    5.25335e-17,    8.23448e-18,    4.42991e-17
85.9000000,    5.25572e-17,    8.25814e-18,    4.42991e-17
86.0000000,    5.25809e-17,    8.28180e-18,    4.42991e-17
86.1000000,    5.26045e-17,    8.30547e-18,    4.42991e-17
86.2000000,    5.26282e-17,    8.32913e-18,    4.42991e-17
86.3000000,    5.26519e-17,    8.35279e-18,    4.42991e-17
86.4000000,    5.26755e-17,    8.37645e-18,    4.42991e-17
86.5000000,    5.26992e-17,    8.40012e-18,    4.42991e-17
86.6000000,    5.27228e-17,    8.42378e-18,    4.42991e-17
86.7000000,    5.27465e-17,    8.44744e-18,    4.42991e-17
86.8000000,    5.27702e-17,    8.47110e-18,    4.42991e-17
86.9000000,    5.27938e-17,    8.49477e-18,    4.42991e-17
87.0000000,    5.28175e-17,    8.51843e-18,    4.42991e-17
87.1000000,    5.28412e-17,    8.54209e-18,    4.42991e-17
87.2000000,    5.28648e-17,    8.56575e-18,    4.42991e-17
87.3000000,    5.28885e-17,    8.58941e-18,    4.42991e-17
87.4000000,    5.29121e-17,    8.61308e-18,    4.42991e-17
87.5000000,    5.29358e-17,    8.63674e-18,    4.42991e-17
87.6000000,    5.29595e-17,    8.66040e-18,    4.42991e-17
87.7000000,    5.29831e-17,    8.68406e-18,    4.42991e-17
87.8000000,    5.30068e-17,    8.70773e-18,    4.42991e-17
87.9000000,    5.30305e-17,    8.73139e-18,    4.42991e-17
88.0000000,    5.30541e-17,    8.75505e-18,    4.42991e-17
88.1000000,    5.30778e-17,    8.77871e-18,    4.42991e-17
88.2000000,    5.31014e-17,    8.80237e-18,    4.42991e-17
88.3000000,    5.31251e-17,    8.82604e-18,    4.42991e-17
88.4000000,    5.31488e-17,    8.84970e-18,    4.42991e-17
88.5000000,    5.31724e-17,    8.87336e-18,    4.42991e-17
88.6000000,    5.31961e-17,    8.89702e-18,    4.42991e-17
88.7000000,    5.32198e-17,    8.92069e-18,    4.42991e-17
88.8000000,    5.32434e-17,    8.94435e-18,    4.42991e-17
88.9000000,    5.32671e-17,    8.96801e-18,    4.42991e-17
89.0000000,    5.32907e-17,    8.99167e-18,    4.42991e-17
89.1000000,    5.33144e-17,    9.01534e-18,    4.42991e-17
89.2000000,    5.33381e-17,    9.03900e-18,    4.42991e-17
89.3000000,    5.33617e-17,    9.06266e-18,    4.42991e-17
89.4000000,    5.33854e-17,    9.08632e-18,    4.42991e-17
89.5000000,    5.34091e-17,    9.10998e-18,    4.42991e-17
89.6000000,    5.34327e-17,    9.13365e-18,    4.42991e-17
89.7000000,    5.34564e-17,    9.15731e-18,    4.42991e-17
89.8000000,    5.34800e-17,    9.18097e-18,    4.42991e-17
89.9000000,    5.35037e-17,    9.20463e-18,    4.42991e-17
90.0000000,    5.35274e-17,    9.22830e-18,    4.42991e-17
90.1000000,    5.35510e-17,    9.25196e-18,    4.42991e-17
90.2000000,    5.35747e-17,    9.27562e-18,    4.42991e-17
90.3000000,    5.35983e-17,    9.29928e-18,    4.42991e-17
90.4000000,    5.36220e-17,    9.32295e-18,    4.42991e-17
90.5000000,    5.36457e-17,    9.34661e-18,    4.42991e-17
90.6000000,    5.36693e-17,    9.37027e-18,    4.42991e-17
90.7000000,    5.36930e-17,    9.39393e-18,    4.42991e-17
90.8000000,    5.37167e-17,    9.41759e-18,    4.42991e-17
90.9000000,    5.37403e-17,    9.44126e-18,    4.42991e-17
91.0000000,    5.37640e-17,    9.46492e-18,    4.42991e-17
91.1000000,    5.37876e-17,    9.48858e-18,    4.42991e-17
91.2000000,    5.38113e-17,    9.51224e-18,    4.42991e-17
91.3000000,    5.38350e-17,    9.53591e-18,    4.42991e-17
91.4000000,    5.38586e-17,    9.55957e-18,    4.42991e-17
91.5000000,    5.38823e-17,    9.58323e-18,    4.42991e-17
91.6000000,    5.39060e-17,    9.60689e-18,    4.42991e-17
91.7000000,    5.39296e-17,    9.63056e-18,    4.42991e-17
91.8000000,    5.39533e-17,    9.65422e-18,    4.42991e-17
91.9000000,    5.39769e-17,    9.67788e-18,    4.42991e-17
92.0000000,    5.40006e-17,    9.70154e-18,    4.42991e-17
92.1000000,    5.40243e-17,    9.72520e-18,    4.42991e-17
92.2000000,    5.40479e-17,    9.74887e-18,    4.42991e-17
92.3000000,    5.40716e-17,    9.77253e-18,    4.42991e-17
92.4000000,    5.40953e-17,    9.79619e-18,    4.42991e-17
92.5000000,    5.41189e-17,    9.81985e-18,    4.42991e-17
92.6000000,    5.41426e-17,    9.84352e-18,    4.42991e-17
92.7000000,    5.41662e-17,    9.86718e-18,    4.42991e-17
92.8000000,    5.41899e-17,    9.89084e-18,    4.42991e-17
92.9000000,    5.42136e-17,    9.91450e-18,    4.42991e-17
93.0000000,    5.42372e-17,    9.93817e-18,    4.42991e-17
93.1000000,    5.42609e-17,    9.96183e-18,    4.42991e-17
93.2000000,    5.42846e-17,    9.98549e-18,    4.42991e-17
93.3000000,    5.43082e-17,    1.00092e-17,    4.42991e-17
93.4000000,    5.43319e-17,    1.00328e-17,    4.42991e-17
93.5000000,    5.43555e-17,    1.00565e-17,    4.42991e-17
93.6000000,    5.43792e-17,    1.00801e-17,    4.42991e-17
93.7000000,    5.44029e-17,    1.01038e-17,    4.42991e-17
93.8000000,    5.44265e-17,    1.01275e-17,    4.42991e-17
93.9000000,    5.44502e-17,    1.01511e-17,    4.42991e-17
94.0000000,    5.44739e-17,    1.01748e-17,    4.42991e-17
94.1000000,    5.44975e-17,    1.01985e-17,    4.42991e-17
94.2000000,    5.45212e-17,    1.02221e-17,    4.42991e-17
94.3000000,    5.45448e-17,    1.02458e-17,    4.42991e-17
94.4000000,    5.45685e-17,    1.02694e-17,    4.42991e-17
94.5000000,    5.45922e-17,    1.02931e-17,    4.42991e-17
94.6000000,    5.46158e-17,    1.03168e-17,    4.42991e-17
94.7000000,    5.46395e-17,    1.03404e-17,    4.42991e-17
94.8000000,    5.46632e-17,    1.03641e-17,    4.42991e-17
94.9000000,    5.46868e-17,    1.03877e-17,    4.42991e-17
95.0000000,    5.47105e-17,    1.04114e-17,    4.42991e-17
95.1000000,    5.47341e-17,    1.04351e-17,    4.42991e-17
95.2000000,    5.47578e-17,    1.04587e-17,    4.42991e-17
95.3000000,    5.47815e-17,    1.04824e-17,    4.42991e-17
95.4000000,    5.48051e-17,    1.05061e-17,    4.42991e-17
95.5000000,    5.48288e-17,    1.05297e-17,    4.42991e-17
95.6000000,    5.48525e-17,    1.05534e-17,    4.42991e-17
95.7000000,    5.48761e-17,    1.05770e-17,    4.42991e-17
95.8000000,    5.48998e-17,    1.06007e-17,    4.42991e-17
95.9000000,    5.49234e-17,    1.06244e-17,    4.42991e-17
96.0000000,    5.49471e-17,    1.06480e-17,    4.42991e-17
96.1000000,    5.49708e-17,    1.06717e-17,    4.42991e-17
96.2000000,    5.49944e-17,    1.06954e-17,    4.42991e-17
96.3000000,    5.50181e-17,    1.07190e-17,    4.42991e-17
96.4000000,    5.50417e-17,    1.07427e-17,    4.42991e-17
96.5000000,    5.50654e-17,    1.07663e-17,    4.42991e-17
96.6000000,    5.50891e-17,    1.07900e-17,    4.42991e-17
96.7000000,    5.51127e-17,    1.08137e-17,    4.42991e-17
96.8000000,    5.51364e-17,    1.08373e-17,    4.42991e-17
96.9000000,    5.51601e-17,    1.08610e-17,    4.42991e-17
97.0000000,    5.51837e-17,    1.08847e-17,    4.42991e-17
97.1000000,    5.52074e-17,    1.09083e-17,    4.42991e-17
97.2000000,    5.52310e-17,    1.09320e-17,    4.42991e-17
97.3000000,    5.52547e-17,    1.09556e-17,    4.42991e-17
97.4000000,    5.52784e-17,    1.09793e-17,    4.42991e-17
97.5000000,    5.53020e-17,    1.10030e-17,    4.42991e-17
97.6000000,    5.53257e-17,    1.10266e-17,    4.42991e-17
97.7000000,    5.53494e-17,    1.10503e-17,    4.42991e-17
97.8000000,    5.53730e-17,    1.10740e-17,    4.42991e-17
97.9000000,    5.53967e-17,    1.10976e-17,    4.42991e-17
98.0000000,    5.54203e-17,    1.11213e-17,    4.42991e-17
98.1000000,    5.54440e-17,    1.11449e-17,    4.42991e-17
98.2000000,    5.54677e-17,    1.11686e-17,    4.42991e-17
98.3000000,    5.54913e-17,    1.11923e-17,    4.42991e-17
98.4000000,    5.55150e-17,    1.12159e-17,    4.42991e-17
98.5000000,    5.55387e-17,    1.12396e-17,    4.42991e-17
98.6000000,    5.55623e-17,    1.12633e-17,    4.42991e-17
98.7000000,    5.55860e-17,    1.12869e-17,    4.42991e-17
98.8000000,    5.56096e-17,    1.13106e-17,    4.42991e-17
98.9000000,    5.56333e-17,    1.13342e-17,    4.42991e-17
99.0000000,    5.56570e-17,    1.13579e-17,    4.42991e-17
99.1000000,    5.56806e-17,    1.13816e-17,    4.42991e-17
99.2000000,    5.56429e-17,    1.14052e-17,    4.42377e-17
99.3000000,    5.54433e-17,    1.14289e-17,    4.40144e-17
99.4000000,    5.52224e-17,    1.14526e-17,    4.37698e-17
99.5000000,    5.50014e-17,    1.14762e-17,    4.35252e-17
99.6000000,    5.47875e-17,    1.14999e-17,    4.32876e-17
99.7000000,    5.45982e-17,    1.15235e-17,    4.30747e-17
99.8000000,    5.44103e-17,    1.15472e-17,    4.28631e-17
99.9000000,    5.42186e-17,    1.15709e-17,    4.26477e-17
100.0000000,    5.40261e-17,    1.15945e-17,    4.24316e-17
100.1000000,    5.38520e-17,    1.16182e-17,    4.22338e-17
100.2000000,    5.37020e-17,    1.16419e-17,    4.20602e-17
100.3000000,    5.35398e-17,    1.16655e-17,    4.18743e-17
100.4000000,    5.33562e-17,    1.16892e-17,    4.16671e-17
100.5000000,    5.31492e-17,    1.17128e-17,    4.14364e-17
100.6000000,    5.29351e-17,    1.17365e-17,    4.11986e-17
100.7000000,    5.27390e-17,    1.17602e-17,    4.09789e-17
100.8000000,    5.25739e-17,    1.17838e-17,    4.07901e-17
100.9000000,    5.24321e-17,    1.18075e-17,    4.06246e-17
101.0000000,    5.22874e-17,    1.18311e-17,    4.04563e-17
101.1000000,    5.21291e-17,    1.18548e-17,    4.02743e-17
101.2000000,    5.19546e-17,    1.18785e-17,    4.00761e-17
101.3000000,    5.17724e-17,    1.19021e-17,    3.98703e-17
101.4000000,    5.16045e-17,    1.19258e-17,    3.96787e-17
101.5000000,    5.14521e-17,    1.19495e-17,    3.95026e-17
101.6000000,    5.13078e-17,    1.19731e-17,    3.93347e-17
101.7000000,    5.11490e-17,    1.19968e-17,    3.91522e-17
101.8000000,    5.09577e-17,    1.20204e-17,    3.89373e-17
101.9000000,    5.07407e-17,    1.20441e-17,    3.86966e-17
102.0000000,    5.05069e-17,    1.20678e-17,    3.84392e-17
102.1000000,    5.02635e-17,    1.20914e-17,    3.81720e-17
102.2000000,    5.00197e-17,    1.21151e-17,    3.79047e-17
102.3000000,    4.97893e-17,    1.21388e-17,    3.76506e-17
102.4000000,    4.95756e-17,    1.21624e-17,    3.74132e-17
102.5000000,    4.93802e-17,    1.21861e-17,    3.71942e-17
102.6000000,    4.91776e-17,    1.22097e-17,    3.69679e-17
102.7000000,    4.89525e-17,    1.22334e-17,    3.67191e-17
102.8000000,    4.87041e-17,    1.22571e-17,    3.64470e-17
102.9000000,    4.84220e-17,    1.22807e-17,    3.61413e-17
103.0000000,    4.81057e-17,    1.23044e-17,    3.58013e-17
103.1000000,    4.77508e-17,    1.23281e-17,    3.54227e-17
103.2000000,    4.73621e-17,    1.23517e-17,    3.50104e-17
103.3000000,    4.69659e-17,    1.23754e-17,    3.45905e-17
103.4000000,    4.65774e-17,    1.23990e-17,    3.41783e-17
103.5000000,    4.62122e-17,    1.24227e-17,    3.37895e-17
103.6000000,    4.58784e-17,    1.24464e-17,    3.34321e-17
103.7000000,    4.55234e-17,    1.24700e-17,    3.30534e-17
103.8000000,    4.51429e-17,    1.24937e-17,    3.26492e-17
103.9000000,    4.47061e-17,    1.25174e-17,    3.21887e-17
104.0000000,    4.42078e-17,    1.25410e-17,    3.16668e-17
104.1000000,    4.37051e-17,    1.25647e-17,    3.11404e-17
104.2000000,    4.32367e-17,    1.25883e-17,    3.06483e-17
104.3000000,    4.28268e-17,    1.26120e-17,    3.02148e-17
104.4000000,    4.24856e-17,    1.26357e-17,    2.98500e-17
104.5000000,    4.21807e-17,    1.26593e-17,    2.95214e-17
104.6000000,    4.18818e-17,    1.26830e-17,    2.91988e-17
104.7000000,    4.14705e-17,    1.27067e-17,    2.87639e-17
104.8000000,    4.09948e-17,    1.27303e-17,    2.82645e-17
104.9000000,    4.05085e-17,    1.27540e-17,    2.77546e-17
105.0000000,    4.00079e-17,    1.27776e-17,    2.72302e-17
105.1000000,    3.95276e-17,    1.28013e-17,    2.67263e-17
105.2000000,    3.91265e-17,    1.28250e-17,    2.63016e-17
105.3000000,    3.88058e-17,    1.28486e-17,    2.59572e-17
105.4000000,    3.85242e-17,    1.28723e-17,    2.56519e-17
105.5000000,    3.82456e-17,    1.28960e-17,    2.53497e-17
105.6000000,    3.79432e-17,    1.29196e-17,    2.50235e-17
105.7000000,    3.75999e-17,    1.29433e-17,    2.46566e-17
105.8000000,    3.72183e-17,    1.29669e-17,    2.42514e-17
105.9000000,    3.68051e-17,    1.29906e-17,    2.38145e-17
106.0000000,    3.63891e-17,    1.30143e-17,    2.33748e-17
106.1000000,    3.60125e-17,    1.30379e-17,    2.29745e-17
106.2000000,    3.56891e-17,    1.30616e-17,    2.26275e-17
106.3000000,    3.54427e-17,    1.30853e-17,    2.23574e-17
106.4000000,    3.52468e-17,    1.31089e-17,    2.21379e-17
106.5000000,    3.51156e-17,    1.31326e-17,    2.19830e-17
106.6000000,    3.50186e-17,    1.31562e-17,    2.18624e-17
106.7000000,    3.49503e-17,    1.31799e-17,    2.17704e-17
106.8000000,    3.48769e-17,    1.32036e-17,    2.16734e-17
106.9000000,    3.48017e-17,    1.32272e-17,    2.15744e-17
107.0000000,    3.47239e-17,    1.32509e-17,    2.14730e-17
107.1000000,    3.46599e-17,    1.32745e-17,    2.13853e-17
107.2000000,    3.46655e-17,    1.32982e-17,    2.13673e-17
107.3000000,    3.46891e-17,    1.33219e-17,    2.13673e-17
107.4000000,    3.47128e-17,    1.33455e-17,    2.13673e-17
107.5000000,    3.47365e-17,    1.33692e-17,    2.13673e-17
107.6000000,    3.47601e-17,    1.33929e-17,    2.13673e-17
107.7000000,    3.47838e-17,    1.34165e-17,    2.13673e-17
107.8000000,    3.48074e-17,    1.34402e-17,    2.13673e-17
107.9000000,    3.48311e-17,    1.34638e-17,    2.13673e-17
108.0000000,    3.48548e-17,    1.34875e-17,    2.13673e-17
108.1000000,    3.48784e-17,    1.35112e-17,    2.13673e-17
108.2000000,    3.49021e-17,    1.35348e-17,    2.13673e-17
108.3000000,    3.49258e-17,    1.35585e-17,    2.13673e-17
108.4000000,    3.49494e-17,    1.35822e-17,    2.13673e-17
108.5000000,    3.49731e-17,    1.36058e-17,    2.13673e-17
108.6000000,    3.49967e-17,    1.36295e-17,    2.13673e-17
108.7000000,    3.50204e-17,    1.36531e-17,    2.13673e-17
108.8000000,    3.50441e-17,    1.36768e-17,    2.13673e-17
108.9000000,    3.50677e-17,    1.37005e-17,    2.13673e-17
109.0000000,    3.50914e-17,    1.37241e-17,    2.13673e-17
109.1000000,    3.51151e-17,    1.37478e-17,    2.13673e-17
109.2000000,    3.51387e-17,    1.37715e-17,    2.13673e-17
109.3000000,    3.51624e-17,    1.37951e-17,    2.13673e-17
109.4000000,    3.51860e-17,    1.38188e-17,    2.13673e-17
109.5000000,    3.52097e-17,    1.38424e-17,    2.13673e-17
109.6000000,    3.52334e-17,    1.38661e-17,    2.13673e-17
109.7000000,    3.52570e-17,    1.38898e-17,    2.13673e-17
109.8000000,    3.52807e-17,    1.39134e-17,    2.13673e-17
109.9000000,    3.53044e-17,    1.39371e-17,    2.13673e-17
110.0000000,    3.53280e-17,    1.39608e-17,    2.13673e-17
110.1000000,    3.53517e-17,    1.39844e-17,    2.13673e-17
110.2000000,    3.53753e-17,    1.40081e-17,    2.13673e-17
110.3000000,    3.53990e-17,    1.40317e-17,    2.13673e-17
110.4000000,    3.54227e-17,    1.40554e-17,    2.13673e-17
110.5000000,    3.54463e-17,    1.40791e-17,    2.13673e-17
110.6000000,    3.54700e-17,    1.41027e-17,    2.13673e-17
