# wavelength (nm) photoabsorption  photodissociation  photoionisation (Plane calculation)
120,	1.68716E-19,	1.68716E-19, 0.0
121,	3.91323E-19,	3.91323E-19, 0.0
122,	8.19524E-19,	8.19524E-19, 0.0
123,	1.55703E-18,	1.55703E-18, 0.0
124,	2.69600E-18,	2.69600E-18, 0.0
125,	4.27289E-18,	4.27289E-18, 0.0
126,	6.22469E-18,	6.22469E-18, 0.0
127,	8.36857E-18,	8.36857E-18, 0.0
128,	1.04231E-17,	1.04231E-17, 0.0
129,	1.20718E-17,	1.20718E-17, 0.0
130,	1.30478E-17,	1.30478E-17, 0.0
131,	1.32074E-17,	1.32074E-17, 0.0
132,	1.25646E-17,	1.25646E-17, 0.0
133,	1.12759E-17,	1.12759E-17, 0.0
134,	9.58885E-18,	9.58885E-18, 0.0
135,	7.77603E-18,	7.77603E-18, 0.0
136,	6.07944E-18,	6.07944E-18, 0.0
137,	4.67811E-18,	4.67811E-18, 0.0
138,	3.68077E-18,	3.68077E-18, 0.0
139,	3.13649E-18,	3.13649E-18, 0.0
140,	3.05376E-18,	3.05376E-18, 0.0
141,	3.42063E-18,	3.42063E-18, 0.0
142,	4.22194E-18,	4.22194E-18, 0.0
143,	5.45244E-18,	5.45244E-18, 0.0
144,	7.12515E-18,	7.12515E-18, 0.0
145,	9.27348E-18,	9.27348E-18, 0.0
146,	1.19450E-17,	1.19450E-17, 0.0
147,	1.51854E-17,	1.51854E-17, 0.0
148,	1.90138E-17,	1.90138E-17, 0.0
149,	2.33945E-17,	2.33945E-17, 0.0
150,	2.82131E-17,	2.82131E-17, 0.0
151,	3.32653E-17,	3.32653E-17, 0.0
152,	3.82665E-17,	3.82665E-17, 0.0
153,	4.28820E-17,	4.28820E-17, 0.0
154,	4.67738E-17,	4.67738E-17, 0.0
155,	4.96548E-17,	4.96548E-17, 0.0
156,	5.13366E-17,	5.13366E-17, 0.0
157,	5.17612E-17,	5.17612E-17, 0.0
158,	5.10091E-17,	5.10091E-17, 0.0
159,	4.92822E-17,	4.92822E-17, 0.0
160,	4.68677E-17,	4.68677E-17, 0.0
161,	4.40894E-17,	4.40894E-17, 0.0
162,	4.12580E-17,	4.12580E-17, 0.0
163,	3.86293E-17,	3.86293E-17, 0.0
164,	3.63762E-17,	3.63762E-17, 0.0
165,	3.45772E-17,	3.45772E-17, 0.0
166,	3.32213E-17,	3.32213E-17, 0.0
167,	3.22258E-17,	3.22258E-17, 0.0
168,	3.14614E-17,	3.14614E-17, 0.0
169,	3.07798E-17,	3.07798E-17, 0.0
170,	3.00391E-17,	3.00391E-17, 0.0
171,	2.91239E-17,	2.91239E-17, 0.0
172,	2.79571E-17,	2.79571E-17, 0.0
173,	2.65055E-17,	2.65055E-17, 0.0
174,	2.47774E-17,	2.47774E-17, 0.0
175,	2.28158E-17,	2.28158E-17, 0.0
176,	2.06887E-17,	2.06887E-17, 0.0
177,	1.84785E-17,	1.84785E-17, 0.0
178,	1.62715E-17,	1.62715E-17, 0.0
179,	1.41499E-17,	1.41499E-17, 0.0
180,	1.21858E-17,	1.21858E-17, 0.0
181,	1.04375E-17,	1.04375E-17, 0.0
182,	8.94802E-18,	8.94802E-18, 0.0
183,	7.74555E-18,	7.74555E-18, 0.0
184,	6.84453E-18,	6.84453E-18, 0.0
185,	6.24756E-18,	6.24756E-18, 0.0
186,	5.94738E-18,	5.94738E-18, 0.0
187,	5.92857E-18,	5.92857E-18, 0.0
188,	6.16907E-18,	6.16907E-18, 0.0
189,	6.64130E-18,	6.64130E-18, 0.0
190,	7.31304E-18,	7.31304E-18, 0.0
191,	8.14820E-18,	8.14820E-18, 0.0
192,	9.10758E-18,	9.10758E-18, 0.0
193,	1.01497E-17,	1.01497E-17, 0.0
194,	1.12319E-17,	1.12319E-17, 0.0
195,	1.23115E-17,	1.23115E-17, 0.0
196,	1.33472E-17,	1.33472E-17, 0.0
197,	1.43004E-17,	1.43004E-17, 0.0
198,	1.51368E-17,	1.51368E-17, 0.0
199,	1.58275E-17,	1.58275E-17, 0.0
200,	1.63500E-17,	1.63500E-17, 0.0
201,	1.66891E-17,	1.66891E-17, 0.0
202,	1.68367E-17,	1.68367E-17, 0.0
203,	1.67924E-17,	1.67924E-17, 0.0
204,	1.65625E-17,	1.65625E-17, 0.0
205,	1.61594E-17,	1.61594E-17, 0.0
206,	1.56006E-17,	1.56006E-17, 0.0
207,	1.49074E-17,	1.49074E-17, 0.0
208,	1.41037E-17,	1.41037E-17, 0.0
209,	1.32149E-17,	1.32149E-17, 0.0
210,	1.22662E-17,	1.22662E-17, 0.0
211,	1.12822E-17,	1.12822E-17, 0.0
212,	1.02857E-17,	1.02857E-17, 0.0
213,	9.29688E-18,	9.29688E-18, 0.0
214,	8.33327E-18,	8.33327E-18, 0.0
215,	7.40926E-18,	7.40926E-18, 0.0
216,	6.53611E-18,	6.53611E-18, 0.0
217,	5.72202E-18,	5.72202E-18, 0.0
218,	4.97237E-18,	4.97237E-18, 0.0
219,	4.28998E-18,	4.28998E-18, 0.0
220,	3.67551E-18,	3.67551E-18, 0.0
221,	3.12782E-18,	3.12782E-18, 0.0
222,	2.64432E-18,	2.64432E-18, 0.0
223,	2.22136E-18,	2.22136E-18, 0.0
224,	1.85455E-18,	1.85455E-18, 0.0
225,	1.53906E-18,	1.53906E-18, 0.0
226,	1.26984E-18,	1.26984E-18, 0.0
227,	1.04182E-18,	1.04182E-18, 0.0
228,	8.50077E-19,	8.50077E-19, 0.0
229,	6.89956E-19,	6.89956E-19, 0.0
230,	5.57123E-19,	5.57123E-19, 0.0
231,	4.47626E-19,	4.47626E-19, 0.0
232,	3.57915E-19,	3.57915E-19, 0.0
233,	2.84846E-19,	2.84846E-19, 0.0
234,	2.25667E-19,	2.25667E-19, 0.0
235,	1.77998E-19,	1.77998E-19, 0.0
236,	1.39801E-19,	1.39801E-19, 0.0
237,	1.09348E-19,	1.09348E-19, 0.0
238,	8.51873E-20,	8.51873E-20, 0.0
239,	6.61082E-20,	6.61082E-20, 0.0
247,  1e-30, 1e-30, 0.0