# wavelength (nm) photoabsorption  photodissociation  photoionisation (cm^2)
1.0000E-01,    2.00E-22,    0.00E+00,    2.00E-22
2.0000E-01,    2.00E-21,    9.03E-25,    2.00E-21
4.0000E-01,    7.00E-21,    9.48E-24,    6.99E-21
7.5000E-01,    5.00E-20,    1.47E-22,    4.99E-20
1.2500E+00,    2.00E-19,    1.04E-21,    1.99E-19
1.9000E+00,    4.00E-19,    3.25E-21,    3.97E-19
2.6900E+00,    1.00E-18,    1.17E-20,    9.89E-19
3.6000E+00,    7.00E-20,    1.11E-21,    6.89E-20
5.1500E+00,    2.00E-19,    4.56E-21,    1.95E-19
7.2500E+00,    4.00E-19,    1.29E-20,    3.87E-19
8.9600E+00,    1.10E-18,    4.40E-20,    1.06E-18
9.9500E+00,    1.43E-18,    4.29E-20,    1.39E-18
1.0940E+01,    1.78E-18,    3.56E-20,    1.74E-18
1.1930E+01,    2.18E-18,    4.36E-20,    2.14E-18
1.2920E+01,    2.58E-18,    7.74E-20,    2.51E-18
1.3920E+01,    3.00E-18,    3.00E-20,    2.97E-18
1.4920E+01,    3.45E-18,    6.90E-20,    3.38E-18
1.5900E+01,    3.88E-18,    3.88E-20,    3.84E-18
1.6890E+01,    4.42E-18,    4.42E-20,    4.37E-18
1.7880E+01,    4.96E-18,    4.96E-20,    4.91E-18
1.8870E+01,    5.50E-18,    0.00E+00,    5.50E-18
1.9860E+01,    6.20E-18,    0.00E+00,    6.20E-18
2.0850E+01,    6.82E-18,    0.00E+00,    6.82E-18
2.1840E+01,    7.51E-18,    8.34E-34,    7.51E-18
2.2840E+01,    8.20E-18,    0.00E+00,    8.20E-18
2.3830E+01,    8.90E-18,    0.00E+00,    8.90E-18
2.4820E+01,    9.55E-18,    0.00E+00,    9.55E-18
2.5800E+01,    1.00E-17,    0.00E+00,    1.00E-17
2.6800E+01,    1.05E-17,    0.00E+00,    1.05E-17
2.7790E+01,    1.08E-17,    0.00E+00,    1.08E-17
2.8780E+01,    1.12E-17,    0.00E+00,    1.12E-17
2.9770E+01,    1.16E-17,    0.00E+00,    1.16E-17
3.0760E+01,    1.21E-17,    0.00E+00,    1.21E-17
3.2900E+01,    1.29E-17,    0.00E+00,    1.29E-17
3.3730E+01,    1.32E-17,    5.28E-20,    1.32E-17
3.5140E+01,    1.36E-17,    0.00E+00,    1.36E-17
3.6300E+01,    1.40E-17,    2.80E-20,    1.39E-17
3.7470E+01,    1.46E-17,    2.92E-20,    1.45E-17
3.8140E+01,    1.49E-17,    8.94E-20,    1.48E-17
3.9000E+01,    1.55E-17,    0.00E+00,    1.55E-17
4.0540E+01,    1.65E-17,    1.65E-21,    1.65E-17
4.1000E+01,    1.68E-17,    6.72E-20,    1.67E-17
4.1590E+01,    1.73E-17,    3.46E-20,    1.73E-17
4.3670E+01,    1.88E-17,    1.88E-20,    1.88E-17
4.4220E+01,    1.92E-17,    7.68E-20,    1.91E-17
4.4700E+01,    1.94E-17,    7.76E-20,    1.93E-17
4.4970E+01,    1.96E-17,    5.88E-20,    1.95E-17
4.5750E+01,    2.00E-17,    6.00E-20,    1.99E-17
4.5930E+01,    2.01E-17,    0.00E+00,    2.01E-17
4.6200E+01,    2.02E-17,    8.08E-20,    2.01E-17
4.6540E+01,    2.04E-17,    0.00E+00,    2.04E-17
4.7150E+01,    2.06E-17,    4.12E-20,    2.06E-17
4.7530E+01,    2.07E-17,    0.00E+00,    2.07E-17
4.7940E+01,    2.08E-17,    0.00E+00,    2.08E-17
4.8660E+01,    2.09E-17,    0.00E+00,    2.09E-17
4.9170E+01,    2.09E-17,    0.00E+00,    2.09E-17
4.9590E+01,    2.10E-17,    2.33E-33,    2.10E-17
5.0020E+01,    2.10E-17,    0.00E+00,    2.10E-17
5.0850E+01,    2.10E-17,    8.40E-20,    2.10E-17
5.1400E+01,    2.11E-17,    0.00E+00,    2.11E-17
5.1940E+01,    2.12E-17,    0.00E+00,    2.12E-17
5.2650E+01,    2.13E-17,    8.52E-20,    2.13E-17
5.3850E+01,    2.16E-17,    0.00E+00,    2.16E-17
5.4470E+01,    2.17E-17,    1.09E-19,    2.16E-17
5.4890E+01,    2.19E-17,    0.00E+00,    2.19E-17
5.5140E+01,    2.19E-17,    0.00E+00,    2.19E-17
5.5550E+01,    2.20E-17,    0.00E+00,    2.20E-17
5.5850E+01,    2.20E-17,    0.00E+00,    2.20E-17
5.6450E+01,    2.21E-17,    0.00E+00,    2.21E-17
5.8430E+01,    2.26E-17,    7.46E-19,    2.19E-17
5.9000E+01,    1.80E-17,    5.81E-19,    1.74E-17
5.9780E+01,    2.22E-17,    6.93E-19,    2.15E-17
5.9960E+01,    2.29E-17,    7.10E-19,    2.22E-17
6.0000E+01,    1.84E-17,    1.67E-18,    1.67E-17
6.0840E+01,    2.27E-17,    4.99E-19,    2.22E-17
6.1000E+01,    2.17E-17,    1.67E-18,    2.00E-17
6.1080E+01,    2.17E-17,    1.56E-18,    2.01E-17
6.1500E+01,    1.70E-17,    7.50E-19,    1.62E-17
6.1700E+01,    2.27E-17,    7.04E-19,    2.20E-17
6.2000E+01,    1.82E-17,    1.29E-18,    1.69E-17
6.2460E+01,    2.27E-17,    4.99E-19,    2.22E-17
6.2510E+01,    2.26E-17,    4.97E-19,    2.21E-17
6.2590E+01,    2.21E-17,    3.98E-19,    2.17E-17
6.2700E+01,    1.70E-17,    3.06E-19,    1.67E-17
6.2970E+01,    2.21E-17,    3.98E-19,    2.17E-17
6.3000E+01,    1.86E-17,    1.86E-18,    1.67E-17
6.3850E+01,    2.32E-17,    6.31E-18,    1.69E-17
6.3900E+01,    2.49E-17,    7.82E-18,    1.71E-17
6.4120E+01,    2.63E-17,    8.15E-18,    1.81E-17
6.4240E+01,    2.20E-17,    4.47E-18,    1.75E-17
6.4300E+01,    1.88E-17,    1.13E-18,    1.77E-17
6.4560E+01,    2.59E-17,    8.75E-18,    1.71E-17
6.4750E+01,    2.52E-17,    6.70E-18,    1.85E-17
6.5000E+01,    1.84E-17,    1.67E-18,    1.67E-17
6.5350E+01,    2.45E-17,    6.32E-18,    1.82E-17
6.5440E+01,    2.71E-17,    1.04E-17,    1.67E-17
6.5500E+01,    2.01E-17,    2.97E-18,    1.71E-17
6.5600E+01,    1.96E-17,    2.98E-18,    1.66E-17
6.5780E+01,    2.43E-17,    7.44E-18,    1.69E-17
6.6000E+01,    1.84E-17,    1.67E-18,    1.67E-17
6.6370E+01,    2.85E-17,    9.29E-18,    1.92E-17
6.6470E+01,    2.57E-17,    7.99E-18,    1.77E-17
6.6800E+01,    2.05E-17,    4.10E-18,    1.64E-17
6.7050E+01,    3.61E-17,    1.66E-17,    1.95E-17
6.7220E+01,    3.62E-17,    1.81E-17,    1.81E-17
6.7500E+01,    2.14E-17,    7.43E-18,    1.40E-17
6.7600E+01,    1.89E-17,    2.23E-18,    1.67E-17
6.8000E+01,    1.98E-17,    3.37E-18,    1.64E-17
6.8100E+01,    3.18E-17,    1.49E-17,    1.69E-17
6.8270E+01,    3.19E-17,    1.38E-17,    1.81E-17
6.8700E+01,    2.14E-17,    5.39E-18,    1.60E-17
6.9100E+01,    2.81E-17,    8.91E-18,    1.92E-17
6.9250E+01,    2.12E-17,    4.83E-18,    1.64E-17
7.0000E+01,    2.27E-17,    7.63E-18,    1.51E-17
7.0500E+01,    2.53E-17,    7.82E-18,    1.75E-17
7.0650E+01,    2.18E-17,    4.47E-18,    1.73E-17
7.0800E+01,    2.37E-17,    5.78E-18,    1.79E-17
7.1000E+01,    2.25E-17,    6.12E-18,    1.64E-17
7.1200E+01,    2.68E-17,    8.58E-18,    1.82E-17
7.1350E+01,    2.37E-17,    5.97E-18,    1.77E-17
7.1650E+01,    3.09E-17,    9.12E-18,    2.18E-17
7.1700E+01,    2.34E-17,    4.82E-18,    1.86E-17
7.1900E+01,    2.52E-17,    5.97E-18,    1.92E-17
7.2100E+01,    3.27E-17,    1.15E-17,    2.12E-17
7.2300E+01,    2.64E-17,    1.08E-17,    1.56E-17
7.2400E+01,    3.01E-17,    1.32E-17,    1.69E-17
7.2590E+01,    4.92E-17,    1.81E-17,    3.11E-17
7.2700E+01,    2.68E-17,    1.21E-17,    1.47E-17
7.2750E+01,    2.83E-17,    1.34E-17,    1.49E-17
7.2950E+01,    2.57E-17,    1.06E-17,    1.51E-17
7.3020E+01,    2.14E-17,    7.43E-18,    1.40E-17
7.3200E+01,    2.81E-17,    1.28E-17,    1.53E-17
7.3250E+01,    2.71E-17,    1.28E-17,    1.43E-17
7.3320E+01,    3.16E-17,    1.58E-17,    1.58E-17
7.3400E+01,    3.03E-17,    1.43E-17,    1.60E-17
7.3730E+01,    2.41E-17,    1.00E-17,    1.41E-17
7.3830E+01,    2.14E-17,    9.12E-18,    1.23E-17
7.3950E+01,    2.49E-17,    1.04E-17,    1.45E-17
7.4040E+01,    2.16E-17,    8.77E-18,    1.28E-17
7.4150E+01,    3.20E-17,    1.79E-17,    1.41E-17
7.4450E+01,    2.05E-17,    9.70E-18,    1.08E-17
7.4520E+01,    2.16E-17,    1.04E-17,    1.12E-17
7.4620E+01,    1.99E-17,    9.11E-18,    1.08E-17
7.4720E+01,    3.27E-17,    1.67E-17,    1.60E-17
7.4830E+01,    2.19E-17,    1.04E-17,    1.15E-17
7.4920E+01,    3.16E-17,    1.73E-17,    1.43E-17
7.4950E+01,    2.82E-17,    1.54E-17,    1.28E-17
7.4990E+01,    2.83E-17,    1.47E-17,    1.36E-17
7.5120E+01,    2.04E-17,    1.04E-17,    1.00E-17
7.5200E+01,    2.23E-17,    8.92E-18,    1.34E-17
7.5300E+01,    2.10E-17,    1.17E-17,    9.30E-18
7.5450E+01,    2.00E-17,    8.78E-18,    1.12E-17
7.5520E+01,    3.35E-17,    1.81E-17,    1.54E-17
7.5610E+01,    2.86E-17,    1.67E-17,    1.19E-17
7.5720E+01,    3.23E-17,    1.95E-17,    1.28E-17
7.5850E+01,    2.76E-17,    1.66E-17,    1.10E-17
7.5870E+01,    2.30E-17,    9.87E-18,    1.31E-17
7.5900E+01,    2.68E-17,    1.40E-17,    1.28E-17
7.5940E+01,    2.69E-17,    9.41E-18,    1.75E-17
7.6030E+01,    1.60E-17,    7.07E-18,    8.93E-18
7.6040E+01,    1.70E-17,    6.12E-18,    1.09E-17
7.6070E+01,    1.71E-17,    7.99E-18,    9.11E-18
7.6110E+01,    1.39E-17,    3.49E-18,    1.04E-17
7.6200E+01,    1.54E-17,    5.98E-18,    9.42E-18
7.6300E+01,    2.42E-17,    1.51E-17,    9.12E-18
7.6330E+01,    2.34E-17,    7.49E-18,    1.59E-17
7.6380E+01,    3.48E-17,    2.40E-17,    1.08E-17
7.6410E+01,    4.24E-17,    2.66E-17,    1.58E-17
7.6440E+01,    4.59E-17,    2.03E-17,    2.56E-17
7.6510E+01,    2.04E-17,    1.00E-17,    1.04E-17
7.6650E+01,    2.79E-17,    1.60E-17,    1.19E-17
7.6700E+01,    2.80E-17,    1.66E-17,    1.14E-17
7.6750E+01,    2.60E-17,    1.54E-17,    1.06E-17
7.6780E+01,    2.62E-17,    1.45E-17,    1.17E-17
7.7000E+01,    1.43E-17,    3.90E-18,    1.04E-17
7.7110E+01,    2.12E-17,    9.69E-18,    1.15E-17
7.7160E+01,    1.79E-17,    6.50E-18,    1.14E-17
7.7250E+01,    3.47E-17,    1.94E-17,    1.53E-17
7.7310E+01,    2.68E-17,    1.43E-17,    1.25E-17
7.7340E+01,    2.91E-17,    1.64E-17,    1.27E-17
7.7420E+01,    2.35E-17,    1.25E-17,    1.10E-17
7.7450E+01,    2.52E-17,    1.11E-17,    1.41E-17
7.7460E+01,    2.76E-17,    1.64E-17,    1.12E-17
7.7520E+01,    3.07E-17,    1.99E-17,    1.08E-17
7.7640E+01,    1.86E-17,    6.12E-18,    1.25E-17
7.7800E+01,    1.19E-17,    3.53E-18,    8.37E-18
7.7950E+01,    3.13E-17,    9.67E-18,    2.16E-17
7.8000E+01,    3.90E-17,    1.29E-17,    2.61E-17
7.8050E+01,    1.66E-17,    5.78E-18,    1.08E-17
7.8170E+01,    3.87E-17,    2.12E-17,    1.75E-17
7.8210E+01,    3.69E-17,    2.33E-17,    1.36E-17
7.8280E+01,    3.75E-17,    2.34E-17,    1.41E-17
7.8440E+01,    1.82E-17,    8.35E-18,    9.85E-18
7.8500E+01,    2.10E-17,    9.50E-18,    1.15E-17
7.8610E+01,    1.25E-17,    3.92E-18,    8.58E-18
7.8770E+01,    1.61E-17,    5.31E-18,    1.08E-17
7.8900E+01,    5.22E-17,    3.28E-17,    1.94E-17
7.9020E+01,    2.01E-17,    5.23E-18,    1.49E-17
7.9060E+01,    2.42E-17,    9.68E-18,    1.45E-17
7.9150E+01,    3.72E-17,    2.14E-17,    1.58E-17
7.9320E+01,    1.56E-17,    6.70E-18,    8.91E-18
7.9400E+01,    2.04E-17,    1.04E-17,    1.00E-17
7.9510E+01,    1.42E-17,    4.49E-18,    9.71E-18
7.9560E+01,    1.65E-17,    6.32E-18,    1.02E-17
7.9600E+01,    1.71E-17,    6.89E-18,    1.02E-17
7.9680E+01,    5.21E-17,    2.62E-17,    2.59E-17
7.9730E+01,    4.66E-17,    2.87E-17,    1.79E-17
7.9800E+01,    5.62E-17,    4.21E-17,    1.41E-17
7.9900E+01,    2.50E-17,    9.70E-18,    1.53E-17
7.9970E+01,    2.29E-17,    8.20E-18,    1.47E-17
8.0070E+01,    2.50E-17,    1.25E-17,    1.25E-17
8.0300E+01,    1.55E-17,    4.09E-18,    1.14E-17
8.0470E+01,    1.95E-17,    9.11E-18,    1.04E-17
8.0530E+01,    3.44E-17,    2.00E-17,    1.44E-17
8.0620E+01,    2.79E-17,    1.36E-17,    1.43E-17
8.0710E+01,    7.56E-17,    5.14E-17,    2.42E-17
8.0850E+01,    2.46E-17,    1.06E-17,    1.40E-17
8.1020E+01,    1.79E-17,    6.69E-18,    1.12E-17
8.1100E+01,    2.11E-17,    9.68E-18,    1.14E-17
8.1300E+01,    1.30E-17,    2.22E-18,    1.08E-17
8.1440E+01,    4.28E-17,    2.02E-17,    2.26E-17
8.1640E+01,    2.08E-17,    6.69E-18,    1.41E-17
8.1700E+01,    2.23E-17,    9.12E-18,    1.32E-17
8.1800E+01,    5.77E-17,    4.28E-17,    1.49E-17
8.1850E+01,    2.57E-17,    1.12E-17,    1.45E-17
8.1980E+01,    2.46E-17,    6.52E-18,    1.81E-17
8.2100E+01,    1.69E-17,    5.02E-18,    1.19E-17
8.2150E+01,    1.88E-17,    6.12E-18,    1.27E-17
8.2300E+01,    1.38E-17,    1.12E-18,    1.27E-17
8.2450E+01,    3.24E-17,    1.79E-17,    1.45E-17
8.2540E+01,    2.27E-17,    7.62E-18,    1.51E-17
8.2640E+01,    2.76E-17,    8.20E-18,    1.94E-17
8.2700E+01,    2.39E-17,    4.66E-18,    1.92E-17
8.2780E+01,    3.63E-17,    1.62E-17,    2.01E-17
8.2900E+01,    1.57E-17,    1.68E-18,    1.40E-17
8.2990E+01,    2.12E-17,    6.70E-18,    1.45E-17
8.3080E+01,    1.71E-17,    4.29E-18,    1.28E-17
8.3240E+01,    2.16E-17,    3.91E-18,    1.77E-17
8.3350E+01,    1.60E-17,    1.12E-18,    1.49E-17
8.3370E+01,    1.81E-17,    2.17E-18,    1.59E-17
8.3450E+01,    1.90E-17,    1.52E-18,    1.75E-17
8.3520E+01,    1.86E-17,    1.06E-18,    1.75E-17
8.3620E+01,    3.38E-17,    8.92E-18,    2.49E-17
8.3850E+01,    2.38E-17,    2.98E-18,    2.08E-17
8.4000E+01,    1.34E-17,    1.87E-19,    1.32E-17
8.4120E+01,    1.71E-17,    3.30E-18,    1.38E-17
8.4300E+01,    1.49E-17,    1.67E-18,    1.32E-17
8.4400E+01,    2.44E-17,    3.17E-18,    2.12E-17
8.4500E+01,    1.75E-17,    1.12E-18,    1.64E-17
8.4570E+01,    2.15E-17,    2.06E-18,    1.94E-17
8.4630E+01,    2.20E-17,    1.50E-18,    2.05E-17
8.4680E+01,    1.90E-17,    5.70E-19,    1.84E-17
8.4800E+01,    3.13E-17,    5.20E-18,    2.61E-17
8.4850E+01,    2.98E-17,    7.27E-18,    2.25E-17
8.4900E+01,    2.73E-17,    4.83E-18,    2.25E-17
8.5100E+01,    2.84E-17,    1.02E-17,    1.82E-17
8.5190E+01,    2.61E-17,    8.56E-18,    1.75E-17
8.5230E+01,    2.61E-17,    8.38E-18,    1.77E-17
8.5270E+01,    2.57E-17,    8.19E-18,    1.75E-17
8.5360E+01,    2.53E-17,    6.88E-18,    1.84E-17
8.5420E+01,    2.72E-17,    6.69E-18,    2.05E-17
8.5620E+01,    2.09E-17,    7.27E-18,    1.36E-17
8.5720E+01,    2.70E-17,    6.88E-18,    2.01E-17
8.5800E+01,    2.09E-17,    2.80E-18,    1.81E-17
8.5830E+01,    2.01E-17,    1.87E-18,    1.82E-17
8.5900E+01,    1.86E-17,    2.12E-18,    1.65E-17
8.6000E+01,    2.53E-17,    6.32E-18,    1.90E-17
8.6020E+01,    2.57E-17,    9.30E-18,    1.64E-17
8.6120E+01,    3.43E-17,    6.89E-18,    2.74E-17
8.6300E+01,    3.05E-17,    1.32E-17,    1.73E-17
8.6350E+01,    3.54E-17,    1.36E-17,    2.18E-17
8.6460E+01,    3.20E-17,    1.12E-17,    2.08E-17
8.6550E+01,    3.79E-17,    1.82E-17,    1.97E-17
8.6650E+01,    4.09E-17,    1.73E-17,    2.36E-17
8.6700E+01,    4.25E-17,    1.94E-17,    2.31E-17
8.6770E+01,    3.58E-17,    1.10E-17,    2.48E-17
8.6900E+01,    2.64E-17,    1.00E-17,    1.64E-17
8.7000E+01,    4.17E-17,    1.10E-17,    3.07E-17
8.7070E+01,    3.63E-17,    9.51E-18,    2.68E-17
8.7150E+01,    5.02E-17,    1.67E-17,    3.35E-17
8.7230E+01,    2.66E-17,    7.63E-18,    1.90E-17
8.7350E+01,    2.36E-17,    9.49E-18,    1.41E-17
8.7400E+01,    2.44E-17,    8.49E-18,    1.59E-17
8.7500E+01,    2.24E-17,    4.39E-18,    1.80E-17
8.7600E+01,    2.62E-17,    1.05E-17,    1.57E-17
8.7700E+01,    2.53E-17,    1.25E-17,    1.28E-17
8.7750E+01,    3.91E-17,    1.75E-17,    2.16E-17
8.7830E+01,    3.39E-17,    1.66E-17,    1.73E-17
8.8000E+01,    4.47E-17,    1.27E-17,    3.20E-17
8.8090E+01,    4.46E-17,    1.82E-17,    2.64E-17
8.8120E+01,    5.69E-17,    2.53E-17,    3.16E-17
8.8400E+01,    2.67E-17,    1.16E-17,    1.51E-17
8.8450E+01,    3.35E-17,    7.44E-18,    2.61E-17
8.8520E+01,    2.34E-17,    2.34E-17,    0.00E+00
8.8700E+01,    2.77E-17,    2.77E-17,    0.00E+00
8.8900E+01,    6.44E-17,    6.44E-17,    0.00E+00
8.9000E+01,    5.92E-17,    5.92E-17,    0.00E+00
8.9030E+01,    6.59E-17,    6.59E-17,    0.00E+00
8.9300E+01,    2.29E-17,    2.29E-17,    0.00E+00
8.9400E+01,    3.83E-17,    3.83E-17,    0.00E+00
8.9500E+01,    2.90E-17,    2.90E-17,    0.00E+00
8.9670E+01,    8.56E-17,    8.56E-17,    0.00E+00
8.9880E+01,    2.27E-17,    2.27E-17,    0.00E+00
8.9920E+01,    1.54E-17,    1.54E-17,    0.00E+00
9.0020E+01,    3.76E-17,    3.76E-17,    0.00E+00
9.0130E+01,    2.38E-17,    2.38E-17,    0.00E+00
9.0200E+01,    3.24E-17,    3.24E-17,    0.00E+00
9.0320E+01,    3.52E-17,    3.52E-17,    0.00E+00
9.0420E+01,    2.21E-17,    2.21E-17,    0.00E+00
9.0500E+01,    7.15E-17,    7.15E-17,    0.00E+00
9.0580E+01,    3.46E-17,    3.46E-17,    0.00E+00
9.0620E+01,    4.39E-17,    4.39E-17,    0.00E+00
9.0710E+01,    3.72E-17,    3.72E-17,    0.00E+00
9.0830E+01,    5.65E-17,    5.65E-17,    0.00E+00
9.0880E+01,    5.51E-17,    5.51E-17,    0.00E+00
9.0910E+01,    6.44E-17,    6.44E-17,    0.00E+00
9.1030E+01,    1.71E-17,    1.71E-17,    0.00E+00
9.1220E+01,    2.87E-17,    2.87E-17,    0.00E+00
9.1350E+01,    6.44E-17,    6.44E-17,    0.00E+00
9.1500E+01,    1.86E-17,    1.86E-17,    0.00E+00
9.1560E+01,    4.35E-17,    4.35E-17,    0.00E+00
9.1650E+01,    1.49E-17,    1.49E-17,    0.00E+00
9.1750E+01,    6.62E-17,    6.62E-17,    0.00E+00
9.2120E+01,    1.71E-17,    1.71E-17,    0.00E+00
9.2200E+01,    6.17E-18,    6.17E-18,    0.00E+00
9.2250E+01,    2.73E-17,    2.73E-17,    0.00E+00
9.2310E+01,    2.49E-17,    2.49E-17,    0.00E+00
9.2350E+01,    2.85E-17,    2.85E-17,    0.00E+00
9.2370E+01,    1.37E-17,    1.37E-17,    0.00E+00
9.2420E+01,    3.63E-17,    3.63E-17,    0.00E+00
9.2430E+01,    9.40E-18,    9.40E-18,    0.00E+00
9.2480E+01,    3.46E-17,    3.46E-17,    0.00E+00
9.2720E+01,    1.25E-17,    1.25E-17,    0.00E+00
9.2900E+01,    2.00E-17,    2.00E-17,    0.00E+00
9.3050E+01,    3.35E-17,    3.35E-17,    0.00E+00
9.3500E+01,    2.15E-17,    2.15E-17,    0.00E+00
9.3590E+01,    2.92E-17,    2.92E-17,    0.00E+00
9.3730E+01,    1.56E-17,    1.56E-17,    0.00E+00
9.4400E+01,    1.20E-17,    1.20E-17,    0.00E+00
9.4720E+01,    1.67E-17,    1.67E-17,    0.00E+00
9.4820E+01,    3.50E-17,    3.50E-17,    0.00E+00
9.4860E+01,    3.70E-17,    3.70E-17,    0.00E+00
9.5350E+01,    5.58E-18,    5.58E-18,    0.00E+00
9.5920E+01,    4.91E-18,    4.91E-18,    0.00E+00
9.6100E+01,    2.79E-17,    2.79E-17,    0.00E+00
9.6300E+01,    4.09E-18,    4.09E-18,    0.00E+00
9.6500E+01,    2.94E-17,    2.94E-17,    0.00E+00
9.6650E+01,    1.09E-17,    1.09E-17,    0.00E+00
9.7120E+01,    3.54E-18,    3.54E-18,    0.00E+00
9.7250E+01,    3.52E-18,    3.52E-18,    0.00E+00
9.7700E+01,    2.80E-19,    2.80E-19,    0.00E+00
9.7750E+01,    2.57E-17,    2.57E-17,    0.00E+00
9.7900E+01,    2.03E-17,    2.03E-17,    0.00E+00
9.8300E+01,    4.47E-18,    4.47E-18,    0.00E+00
9.8980E+01,    2.45E-18,    2.45E-18,    0.00E+00
9.9150E+01,    1.20E-18,    1.20E-18,    0.00E+00
9.9580E+01,    2.03E-18,    2.03E-18,    0.00E+00
1.0257E+02,    1.50E-20,    1.50E-20,    0.00E+00
1.0376E+02,    1.50E-20,    1.50E-20,    0.00E+00
1.0380E+02,    1.00E-35,    1.00E-35,    0.00E+00
1.1178E+02,    1.00E-35,    1.00E-35,    0.00E+00